0;AbLo_r;BiFe_r;GaLA_r;GaMe_r;GlMa_r;GlMe_r;ReFe_r;Sar_l;SeTe_l;TeFa_l;TiAn_l;VaLa_l;VaMe_l;Sol_l
0;10.07;2.01;1.83;9.43;6.04;0.92;-15.93;1.83;-18.95;-6.5;-8.33;-11.08;0.55;-1.92
0.01;7.97;5.77;1.83;9.43;-3.75;-1.19;-1.19;-0.64;-8.06;-2.01;-9.43;-7.42;-5.95;-2.84
0.01;11.26;7.23;1.83;9.43;-2.11;-1.74;1.37;-7.14;-9.43;-3.2;-10.53;1.92;-13.64;-6.87
0.02;2.38;9.43;1.83;9.43;-7.6;1.92;-0.64;-9.7;3.75;0.18;-10.53;-0.09;-1.01;-5.95
0.02;6.23;6.41;1.83;9.43;-3.75;-3.39;3.02;-1.74;3.94;-2.11;0.82;8.15;1.92;-1.65
0.03;-0.09;9.8;1.83;9.43;-9.06;-9.61;13.46;4.94;-2.29;-6.23;3.39;7.69;-10.44;-0.82
0.03;-0.27;14.01;1.83;9.43;-8.7;-4.67;14.19;5.58;1.01;-0.09;21.7;4.21;-9.8;-6.13
0.04;5.77;16.75;1.83;9.43;4.49;-5.68;21.15;8.51;-0.73;10.62;7.97;4.85;-13;-3.2
0.04;3.75;13.28;1.83;9.43;6.5;-0.82;9.98;-0.55;-2.75;3.2;15.66;-3.02;-10.89;-3.2
0.05;3.85;1.92;1.83;9.43;-2.47;-0.09;12.91;2.56;-8.15;-5.04;14.92;-6.59;-3.57;-5.58
0.05;5.77;11.54;1.83;9.43;-5.77;-0.82;13.28;11.26;-14.01;-0.64;5.13;-3.57;-8.61;-8.33
0.06;6.68;6.59;1.83;9.43;-0.37;-6.87;4.58;2.38;-11.44;-6.87;0.46;-1.01;-5.22;-3.94
0.06;6.68;6.59;1.83;9.43;-0.37;-6.87;4.58;2.38;-5.77;-4.85;5.04;-14.47;0.64;-4.67
0.07;6.68;6.59;1.83;9.43;-0.37;-6.87;4.58;2.38;-5.77;-2.11;5.04;-18.59;-2.75;-0.64
0.07;6.68;6.59;1.83;9.43;-0.37;-6.87;4.58;2.38;-5.77;-1.74;5.04;-17.3;-0.92;1.56
0.08;6.68;6.59;1.83;9.43;-0.37;-6.87;4.58;2.38;-5.77;1.01;5.04;-17.3;-0.64;-2.66
0.08;6.68;6.59;1.83;9.43;-0.37;-6.87;4.58;2.38;-5.77;-10.44;5.04;-19.32;1.28;-5.58
0.09;6.68;6.59;1.83;9.43;-0.37;-6.87;4.58;2.38;-5.77;-11.35;5.04;-13.37;-8.15;-0.92
0.09;6.68;6.59;1.83;9.43;-0.37;-6.87;4.58;2.38;-5.77;-9.43;5.04;-0.82;-4.3;-0.46
0.1;6.68;6.59;1.83;9.43;-0.37;-6.87;4.58;2.38;-5.77;-9.61;5.04;6.32;-10.89;2.38
0.1;6.68;6.59;1.83;9.43;-0.37;-6.87;4.58;2.38;-5.77;-0.64;5.04;13.37;-8.7;-3.57
0.11;6.68;6.59;1.83;9.43;-0.37;-6.87;4.58;2.38;-5.77;-7.78;5.04;15.38;-3.39;-4.67
0.11;6.68;6.59;1.83;9.43;-0.37;-6.87;4.58;2.38;-5.77;-12.36;5.04;3.75;-5.58;1.37
0.12;6.68;6.59;1.83;9.43;-0.37;-6.87;4.58;2.38;-5.77;-5.4;5.04;-1.01;-7.6;-4.12
0.12;6.68;6.59;1.83;9.43;-0.37;-6.87;4.58;2.38;-5.77;-12.18;5.04;-1.01;-9.61;-1.92
0.13;-4.12;6.5;-2.38;1.65;-2.29;-0.09;-6.13;4.12;-5.77;-13.82;5.04;4.85;-4.94;-5.95
0.13;-1.37;4.58;1.83;-0.18;-4.49;0.55;-0.82;6.32;-16.57;-9.34;-9.43;4.12;-3.02;-0.73
0.14;-1.37;9.25;4.76;8.88;-2.56;-2.47;-2.75;1.01;-17.67;-10.07;-5.22;10.53;-4.12;0.37
0.14;1.56;-0.09;0.82;3.75;-7.97;-0.64;-8.24;4.67;-14.92;-6.32;-7.97;7.78;-1.37;-3.02
0.15;-3.2;7.6;3.94;-3.39;-7.97;-0.82;2.11;10.8;-20.05;-3.2;-1.01;12.36;-7.05;-6.77
0.15;-8.24;4.67;1.83;2.29;-2.66;-3.75;-6.13;8.24;-15.38;-10.99;-2.11;4.85;-2.84;-3.75
0.16;-5.58;2.11;4.49;2.29;-5.04;-0.27;15.29;0.82;-14.56;-4.67;2.11;2.29;-9.52;-2.66
0.16;-2.29;5.04;2.66;0.55;-5.4;-9.25;1.92;4.21;-15.11;-3.2;-1.46;6.04;-2.75;-3.48
0.17;0.64;1.56;-3.75;4.58;5.58;-1.74;3.02;14.01;-15.56;3.2;0.46;-11.54;-10.16;-5.49
0.17;-4.39;1.92;-2.66;-3.94;0.55;-0.09;6.41;22.8;-2.84;0.82;-3.11;-15.93;-9.98;-3.2
0.18;-2.66;4.03;-3.02;4.67;2.84;1.92;3.75;9.8;-11.17;-1.28;-4.21;-25.73;-15.29;-6.5
0.18;8.97;9.06;12.36;-1.28;-4.58;-3.94;1.92;16.39;-9.8;-13.46;-5.68;-37.99;-5.04;-2.47
0.19;7.05;5.58;0.64;7.05;1.37;-4.49;10.16;4.58;-16.66;-3.48;-11.35;-46.05;-9.25;-6.68
0.19;9.98;5.58;-5.4;0.55;-2.84;-3.75;11.44;2.84;-15.75;-9.8;-14.01;-60.33;-0.46;-3.75
0.2;6.59;5.58;-0.92;-2.11;-3.2;3.2;14.37;5.95;-31.04;-8.33;-11.44;-52.46;-10.8;0.64
0.2;9.25;5.58;-0.09;0.82;-0.46;-2.11;8.88;3.75;-19.41;-5.4;-5.77;-46.42;-6.87;0.46
0.21;7.42;5.58;0.46;3.3;1.1;1.92;11.26;-2.38;-26.46;-1.19;-10.16;-30.58;-6.13;-2.29
0.21;3.2;5.58;-1.01;4.12;-2.11;-3.2;8.24;-4.67;-18.04;-8.7;-6.77;-23.07;-5.58;-2.75
0.22;2.66;5.58;-3.94;3.39;-4.76;-0.18;5.4;-1.19;-19.96;-7.51;-6.32;-16.11;-1.92;-9.98
0.22;0.64;5.58;-0.46;5.58;0.18;-3.66;14.74;0.46;-14.74;-4.49;-6.77;-11.26;-10.44;-6.32
0.23;-3.2;5.58;-7.51;-2.01;1.92;-2.47;5.95;-0.27;-17.21;-12.54;-9.98;-6.87;-6.13;-9.52
0.23;-1.01;5.58;1.92;0.92;-4.03;-3.94;-3.39;-3.57;-1.01;-7.23;1.28;0.92;-8.15;-2.47
0.24;1.19;5.58;-1.01;-0.46;-0.82;-5.95;-4.39;-0.82;-5.04;-11.99;-0.27;-3.75;-13.46;-5.31
0.24;3.94;5.58;3.57;4.12;-5.22;-2.47;-11.81;-11.26;-5.68;-6.23;-0.64;-3.75;-4.49;-3.94
0.25;2.47;5.58;5.04;6.04;8.7;0.82;-4.67;-8.51;-12.73;-9.06;-4.94;-5.4;-9.61;-8.15
0.25;7.05;5.58;7.14;3.02;7.05;-1.65;3.66;-1.37;-8.7;-10.35;-5.95;-9.43;-5.68;-1.19
0.26;3.85;-7.78;7.14;5.31;7.05;-1.65;0.37;-0.82;-4.3;-14.1;-3.57;-7.42;-1.65;-10.35
0.26;2.84;-9.89;7.14;6.59;7.05;-1.65;8.15;0.46;-7.87;-11.08;-4.85;-8.88;-2.01;-0.82
0.27;0.73;-13.28;7.14;2.01;7.05;-1.65;5.22;0.82;-3.75;-5.04;-10.89;-6.32;-1.37;3.57
0.27;1.19;-7.97;7.14;2.29;7.05;-1.65;1.19;6.23;-10.71;0.37;-0.92;2.75;-4.58;-0.82
0.28;4.58;2.11;7.14;-4.67;7.05;-1.65;3.48;13.46;-0.09;-7.05;5.4;-1.56;-3.02;-0.27
0.28;10.53;-0.46;7.14;0.46;7.05;-1.65;-3.2;12.63;-0.09;-1.19;12.91;-1.37;-6.13;0.46
0.29;4.94;0.27;7.14;1.92;7.05;-1.65;-0.82;15.2;-1.74;-0.55;13.28;5.77;-5.58;-3.11
0.29;-1.19;-1.37;7.14;3.02;7.05;-1.65;-4.76;21.61;-2.01;-0.46;8.88;-3.57;-5.95;-1.37
0.3;9.61;-2.11;7.14;2.66;7.05;-1.65;-1.65;10.62;-4.67;-3.75;-0.46;4.3;-6.04;-3.85
0.3;-8.97;10.89;7.14;8.88;7.05;-1.65;-12.54;4.85;-8.97;-2.29;1.01;3.2;-7.23;-4.3
0.31;-3.39;5.58;7.14;6.04;7.05;-1.65;-11.63;11.08;2.66;-2.29;-9.25;0.37;0.82;-9.7
0.31;7.69;10.16;7.14;8.42;7.05;-1.65;-2.29;7.42;-12.73;-3.02;-5.77;3.39;-1.92;0.27
0.32;-0.64;8.97;7.14;6.5;7.05;-1.65;-8.33;0.55;-5.13;2.38;-4.76;1.46;2.66;-6.5
0.32;-5.04;3.02;7.14;6.5;7.05;2.47;-8.15;5.95;-4.3;-7.6;-10.35;8.42;1.74;-3.39
0.33;-5.13;10.8;7.14;3.02;7.05;-1.56;-11.9;-1.74;1.37;-0.46;-4.3;-0.64;-4.67;-3.2
0.33;-13.46;7.97;7.14;4.49;7.05;-2.75;-12.45;3.2;-5.49;-1.28;-17.12;-1.92;-1.56;0.46
0.34;-9.06;7.51;7.14;1.01;7.05;-5.49;-20.6;1.74;-5.4;7.6;-11.08;-7.05;-8.61;-1.01
0.34;-9.89;8.97;7.14;2.66;7.05;-0.09;-5.58;-8.7;-7.14;1.28;-17.49;-1.37;-4.67;1.01
0.35;-6.5;4.12;7.14;5.68;7.05;3.48;-12.54;-3.75;-1.56;3.94;-11.81;-7.23;-2.84;3.02
0.35;-6.41;4.03;7.14;-2.29;7.05;-7.97;-6.87;2.66;-11.08;-0.18;-5.4;-10.35;-6.32;-5.49
0.36;-0.55;6.77;7.14;8.42;7.05;-13;-12.54;-1.65;-6.68;1.37;-12.91;-9.25;-9.98;-6.68
0.36;1.37;5.22;7.14;7.05;7.05;-3.39;-5.86;-9.61;-13.73;11.63;-11.99;0.64;-11.81;-4.3
0.37;-2.38;2.11;7.14;5.4;7.05;-3.75;-6.5;-4.12;-7.97;-1.56;-3.57;-5.04;-4.21;-6.77
0.37;-6.68;3.02;7.14;-0.09;7.05;0.09;-11.81;-6.32;-0.09;0.92;-5.13;-9.89;-5.95;-6.87
0.38;-1.74;0.82;7.14;-4.67;7.05;-7.6;-13.46;-4.67;-2.47;-0.09;-9.52;-7.6;-15.29;-0.46
0.38;7.6;2.29;7.14;9.06;7.05;-6.32;-17.03;-11.44;-14.37;-1.01;3.57;-3.02;-3.2;-8.15
0.39;7.42;5.04;4.3;1.92;-6.13;-7.97;-17.85;-8.33;-16.57;-5.04;0.82;-20.05;-4.58;-3.75
0.39;3.2;3.75;-2.66;4.67;-2.38;-0.82;-16.02;-20.32;-13.09;-9.34;-1.01;-20.05;-6.87;-1.56
0.4;-0.73;-0.09;2.47;1.19;-9.61;-3.57;-0.09;-11.26;-18.59;1.19;3.57;-12.54;-11.81;-3.39
0.4;0.09;0.27;0.82;6.96;-7.14;-3.2;-3.75;-6.5;-6.13;-4.3;-1.92;-7.78;-3.39;-3.2
0.41;-3.2;-5.68;-5.68;-0.09;-8.51;-12.45;-1.1;-6.68;0.46;-5.4;-8.51;1.83;-4.94;-4.85
0.41;1.01;-3.75;-6.23;0.82;-7.78;-12.36;-6.77;-9.61;-1.37;-5.58;-6.13;5.58;-4.49;-1.01
0.42;0.46;-11.08;-8.97;5.4;-6.23;-7.32;2.75;-9.25;-8.15;-2.47;-1.46;4.58;-3.39;-9.43
0.42;9.25;2.11;-2.01;3.85;-2.11;-6.23;1.92;0.82;-15.47;3.94;-5.68;-2.11;-4.3;-1.74
0.43;6.04;-5.04;-13.46;2.47;-0.92;-6.13;2.01;5.77;-16.3;1.83;-0.64;1.74;-0.92;-4.94
0.43;11.99;-7.78;-5.77;5.49;-1.74;-6.68;-6.41;6.13;-25.18;-0.46;7.42;9.98;-1.56;5.04
0.44;11.99;-4.39;-0.46;0.64;-5.22;-6.04;-2.84;7.87;-22.61;3.57;5.95;1.28;-10.35;-2.11
0.44;4.67;-4.12;3.57;-5.13;-0.55;-4.67;-7.6;15.66;-34.15;-2.2;0.64;6.41;-6.13;-6.68
0.45;6.13;3.75;7.69;4.58;-0.18;-10.8;-0.27;-2.01;-32.32;-7.42;3.2;7.05;-6.5;-0.46
0.45;6.13;7.69;-4.67;9.25;-9.25;-7.87;5.4;19.87;-27.74;-0.64;-0.27;7.51;-6.5;-4.58
0.46;6.13;3.2;-4.85;7.23;-7.51;-5.22;4.49;17.3;-23.35;-1.01;-5.68;0.55;-4.85;-0.46
0.46;6.13;8.97;-6.5;4.12;-9.89;-3.57;3.66;12.27;-20.23;-3.39;1.56;-1.74;-2.01;3.02
0.47;6.13;7.05;-0.09;7.6;-7.69;-9.7;-2.11;8.88;-28.11;-5.95;-7.05;9.43;-5.95;2.84
0.47;6.13;6.32;3.3;-1.19;-6.68;-8.7;-8.33;-0.27;-17.3;-8.15;-7.23;2.38;-6.41;-0.09
0.48;6.13;13.92;-3.94;1.92;-11.35;-8.88;2.29;-0.18;-24.17;-2.11;-6.13;-0.64;-7.23;-2.29
0.48;6.13;4.3;-6.5;-1.92;-10.25;-6.68;-4.12;-6.68;-11.08;-0.92;-5.58;5.04;-9.06;-4.58
0.49;6.13;14.37;-7.23;0.64;-9.25;-10.16;-10.89;-0.55;-7.05;-10.53;-4.21;-8.33;-10.8;-9.61
0.49;6.13;7.78;-0.46;1.65;-5.77;-7.51;-20.23;-6.32;-10.89;-9.16;-5.95;-3.94;-10.16;-3.2
0.5;6.13;7.78;-0.09;-0.09;6.77;-14.01;-19.87;-11.44;-13.28;-6.04;-12.45;3.11;-2.29;-0.46
0.5;6.13;6.87;1.74;10.53;2.01;-6.77;-20.69;-19.23;-15.29;-4.94;-3.57;-0.27;-3.2;-6.32
0.51;6.13;9.25;-6.96;-1.01;-0.64;-9.06;-24.72;-23.35;-7.23;-1.19;1.28;-9.06;-8.33;-8.61
0.51;6.13;6.87;0.64;6.23;-5.22;-11.81;-26.92;-21.15;-12.54;-5.4;0.64;-1.92;0.46;-9.52
0.52;6.13;7.87;0.64;6.23;-5.04;-6.77;-26.92;-21.15;-12.73;-8.7;-9.89;-0.82;-5.49;-9.61
0.52;6.13;10.71;0.64;6.23;-11.54;-14.1;-26.92;-21.15;-10.53;-8.24;-0.09;2.84;-4.49;-3.57
0.53;6.13;8.33;0.64;6.23;-11.08;-22.89;-26.92;-21.15;-12.54;-9.61;-3.75;-11.44;-6.68;-4.3
0.53;6.13;3.85;0.64;6.23;-5.77;-7.14;-26.92;-21.15;-18.4;-11.26;-4.67;-8.06;-3.57;-3.11
0.54;6.13;6.68;0.64;6.23;-5.04;-11.81;-26.92;-21.15;-9.61;-12.54;-3.02;-10.62;-9.16;-11.81
0.54;6.13;2.2;0.64;6.23;-5.22;-9.98;-26.92;-21.15;-15.47;-6.13;-3.94;-1.74;-9.34;-5.22
0.55;6.13;-0.09;0.64;6.23;-1.19;-12.54;-26.92;-21.15;-15.29;-7.23;-6.5;-5.49;-5.4;-2.01
0.55;6.13;1.19;0.64;6.23;-8.33;-7.23;-26.92;-21.15;-11.44;-13.28;-5.22;-6.5;-8.61;-6.32
0.56;6.13;-0.27;0.64;6.23;1.65;-10.99;-26.92;-21.15;-8.24;-3.57;-4.39;-7.51;-6.68;-4.49
0.56;6.13;-0.55;0.64;6.23;-10.53;-15.93;-26.92;-21.15;-2.38;-0.46;0.82;-12.45;-14.19;-10.99
0.57;6.13;0.82;0.64;6.23;-2.11;-8.15;-26.92;-21.15;-8.15;-3.94;-4.94;-14.28;-10.35;-8.33
0.57;6.13;3.39;0.64;6.23;-6.87;-10.53;-26.92;-21.15;-15.11;-2.11;-6.32;-7.42;-10.53;-1.74
0.58;6.13;8.33;0.64;6.23;-1.01;-3.48;-26.92;-21.15;-13.82;-5.95;-4.76;-1.56;-10.71;-9.98
0.58;10.53;8.33;0.64;6.23;-6.13;-8.61;-0.37;5.04;-11.08;-3.75;-1.65;-1.92;-7.87;-9.61
0.59;4.85;8.33;0.64;6.23;2.11;-4.03;-7.51;4.3;-11.99;-3.75;-10.71;-7.78;-4.21;-0.27
0.59;8.51;8.33;0.64;6.23;-0.82;-4.85;-9.98;2.29;-13.46;-3.75;-13.28;-7.42;-7.14;-2.47
0.6;3.3;8.33;0.64;6.23;-5.04;-5.4;-1.74;1.1;-11.99;-3.75;-7.6;-2.47;-8.88;-6.59
0.6;7.42;8.33;0.64;6.23;-5.22;-7.23;-3.2;-1.65;-7.23;-3.75;-14.92;-4.76;-11.9;-0.37
0.61;-0.37;8.33;0.64;6.23;-0.64;-12.18;-1.1;-2.56;-8.33;-3.75;-4.12;-1.65;-6.13;-6.04
0.61;10.89;8.33;0.64;6.23;-5.58;-0.92;-2.66;-3.2;-2.38;-3.75;-5.4;1.92;1.19;-1.46
0.62;6.5;8.33;0.64;6.23;-7.05;-10.35;-5.77;5.77;-7.23;-3.75;-11.63;0.64;-5.77;-6.87
0.62;8.15;8.33;0.64;6.23;-5.68;-12.82;-9.8;7.23;-10.71;-3.75;-7.05;-4.67;-3.57;-3.48
0.63;-6.32;8.33;0.64;6.23;-7.05;-2.29;1.19;2.66;-5.49;-3.75;-19.13;-1.56;-7.6;-6.68
0.63;3.85;8.33;0.64;6.23;-5.77;-3.94;-4.21;4.49;-5.13;-3.75;-13.09;0.64;-7.32;-5.22
0.64;-2.47;8.33;0.64;6.23;1.46;-6.68;-4.21;10.07;-3.39;-3.75;-11.81;-1.92;-3.85;-5.22
0.64;5.31;8.33;0.64;6.23;-2.66;-5.31;3.39;12.73;-10.71;-3.75;-1.56;-3.02;-2.75;-1.19
0.65;2.47;5.58;1.56;3.75;-2.29;-2.75;3.11;10.89;-9.06;-3.75;-1.1;1.1;2.29;-0.82
0.65;-1.92;7.05;-0.09;1.92;-1.37;0.18;3.11;14.83;-6.87;-9.61;7.14;-0.64;-0.27;-3.39
0.66;-4.3;5.95;-3.3;0.82;-1.56;-12.18;1.83;8.88;-11.63;-14.01;-5.31;5.31;-6.41;-6.04
0.66;-3.2;7.42;4.3;6.04;-1.92;-6.41;11.99;4.85;-21.51;-13.82;-4.49;7.42;-5.77;-5.49
0.67;-3.39;-0.46;-2.29;-3.48;2.66;-4.67;10.44;2.84;-11.44;-5.77;-9.7;5.22;-2.75;-6.68
0.67;7.97;7.97;-2.56;2.38;-0.27;-3.39;11.17;8.97;-10.8;-6.68;-9.61;-3.39;-2.75;-7.05
0.68;6.32;-0.09;1.19;-0.09;1.74;-9.61;6.68;13.09;-14.92;-7.97;-6.04;-0.27;-0.09;-3.39
0.68;4.58;-0.46;-2.01;4.03;-2.11;-6.68;1.01;7.05;-9.61;-0.82;1.01;-3.85;-8.33;-7.23
0.69;7.78;1.92;-1.74;-3.48;8.7;-9.98;-2.29;1.56;-9.7;12.45;3.94;-1.37;-7.14;-4.67
0.69;2.47;3.57;-5.22;-4.21;-5.68;-9.06;-1.37;-2.47;-10.25;2.29;1.92;4.85;-5.68;-6.32
0.7;10.71;-4.3;-3.48;-2.29;0.82;-7.05;-2.75;-4.76;-6.77;1.92;3.66;-0.09;-0.64;-5.4
0.7;9.8;-5.49;-0.46;-1.28;2.56;1.56;-2.38;-3.11;2.84;-3.48;3.02;-5.58;-7.05;-5.58
0.71;6.5;1.74;-0.37;9.98;-1.1;4.21;13.64;-5.58;-1.74;7.14;0.64;-2.38;-3.39;-6.5
0.71;13.28;-3.75;-0.82;-3.94;6.13;7.78;13.64;-3.75;0.27;5.95;5.04;-4.39;-1.74;-7.42
0.72;12.63;-1.56;1.37;-0.09;2.29;0.18;13.64;-0.37;-6.96;-1.92;0.46;-9.61;-7.23;0.64
0.72;14.01;-7.42;-9.25;0.27;0.73;0.46;13.64;-0.64;-5.13;-1.1;-7.05;-19.23;-7.23;-6.32
0.73;14.56;-13.64;-0.09;4.76;-3.02;0.27;13.64;-2.84;-1.92;1.92;-6.32;-16.02;-14.19;-8.33
0.73;7.78;-6.87;-1.37;-3.57;3.94;6.13;13.64;4.12;3.57;3.66;-5.04;-19.87;1.1;-4.12
0.74;7.42;-2.47;1.19;1.01;2.56;9.52;13.64;-1.28;2.11;2.84;-7.42;-15.47;-9.25;-4.94
0.74;-0.64;3.75;4.12;-0.09;-3.2;4.58;13.64;-4.12;-5.31;-4.21;-1.37;-23.9;-7.87;-11.26
0.75;-2.11;1.01;-3.85;0.92;-0.09;5.49;13.64;2.47;-0.92;1.19;3.02;-19.59;-11.44;-0.18
0.75;3.11;3.3;6.5;-1.01;7.97;6.32;13.64;-10.89;-9.7;10.44;7.97;-13.64;-5.77;-3.75
0.76;1.01;3.85;-4.85;1.74;6.13;-1.74;13.64;-7.14;-12.54;6.68;12.63;-5.4;-9.52;-1.01
0.76;-7.14;-6.5;-0.09;8.24;11.9;4.58;13.64;-9.06;-15.29;6.5;8.7;-4.12;-6.87;-7.23
0.77;-0.09;3.94;0.64;4.85;7.78;2.11;13.64;-6.68;-16.57;4.67;14.56;-6.04;-5.68;-4.39
0.77;-1.74;3.11;2.29;0.09;4.21;-0.18;13.64;-5.04;-14.83;0.46;9.43;-0.27;-2.47;-9.8
0.78;0.64;3.57;2.29;0.09;4.21;-0.18;-13.09;-5.22;-16.94;-2.84;0.09;3.94;-5.95;-10.89
0.78;9.89;11.63;2.29;0.09;4.21;-0.18;-3.75;-7.87;-12.27;-2.84;6.41;2.66;0.64;0.18
0.79;6.68;10.89;2.29;0.09;4.21;-0.18;-13.09;5.77;-20.6;-1.74;5.95;7.6;-8.15;-6.96
0.79;6.04;6.77;2.29;0.09;4.21;-0.18;-7.97;5.58;-26.46;-1.56;5.95;16.2;-14.37;-3.75
0.8;3.57;10.16;2.29;0.09;4.21;-0.18;-4.94;0.64;-18.95;-12.91;-3.57;9.25;-8.33;-6.68
0.8;4.39;7.6;2.29;0.09;4.21;-0.18;-6.87;4.21;-19.87;-9.16;5.77;12.18;-3.39;-11.26
0.81;3.39;5.04;2.29;0.09;4.21;-0.18;-11.26;0.55;-23.53;-7.69;5.22;2.11;-3.2;-7.32
0.81;-0.09;9.52;2.29;0.09;4.21;-0.18;-16.02;0.64;-22.98;-9.7;0.09;-7.23;-11.99;-6.68
0.82;-3.2;11.44;2.29;0.09;4.21;-0.18;-14.56;1.74;-7.51;-7.97;-0.37;-2.01;-3.11;-9.43
0.82;-6.77;6.77;2.29;0.09;4.21;-0.18;-16.66;-7.78;-15.47;-11.44;-2.66;-0.82;-3.75;-6.68
0.83;-10.16;5.95;2.29;0.09;4.21;-0.18;-8.7;-0.64;-12.36;-9.25;2.56;3.85;-4.49;-5.22
0.83;-1.92;2.66;2.29;0.09;4.21;-0.18;-8.42;2.66;-12.82;-17.4;4.85;6.87;-5.04;-2.47
0.84;-6.5;1.92;2.29;0.09;4.21;-0.18;-9.61;5.04;-20.05;-9.8;15.01;0.82;-7.78;-5.49
0.84;-6.5;1.92;-6.87;3.02;-5.04;-10.16;-14.01;2.56;-15.47;-6.5;7.05;5.04;-6.32;-9.43
0.85;-6.5;1.92;0.82;3.02;-6.68;-9.25;-8.97;6.5;-11.81;-10.53;11.26;-0.64;-6.68;-4.12
0.85;-6.5;1.92;-1.56;2.01;-5.4;-8.97;-0.64;3.57;-19.32;-4.49;5.22;-1.65;-0.64;-4.21
0.86;-6.5;1.92;0.64;5.77;-8.51;-7.23;-6.5;1.92;-11.17;-7.42;-4.21;2.01;0.64;-3.39
0.86;-6.5;1.92;4.12;0.27;-7.05;-7.69;-7.51;6.32;-9.43;2.66;-6.59;-3.48;-1.92;-9.8
0.87;-6.5;1.92;-2.01;2.84;-8.33;-7.05;-3.57;8.51;-10.99;-0.46;-7.23;-5.68;-5.04;-2.01
0.87;-6.5;1.92;-0.09;4.67;-5.4;-14.19;5.4;6.32;-1.28;4.67;-3.94;-9.43;0.64;-0.46
0.88;-6.5;1.92;-5.13;0.64;-7.6;-10.71;1.74;4.12;-3.39;4.3;-1.74;-11.26;-2.29;-10.53
0.88;-6.5;1.92;0.92;-1.01;3.48;-7.23;1.92;-2.47;-15.29;5.22;-4.21;-11.08;-3.02;-0.09
0.89;-6.5;1.92;-4.21;6.87;-0.46;-3.75;-1.01;2.93;-11.08;1.37;-4.03;-9.8;-6.23;-4.3
0.89;-6.5;1.92;1.19;5.04;-3.39;-6.5;-4.67;-6.87;-20.32;7.69;-1.37;-8.7;-4.21;-7.78
0.9;-6.5;1.92;8.88;4.67;-1.28;-2.38;-12.54;-5.49;-8.15;2.29;-4.67;-3.39;-1.56;-5.22
0.9;-6.5;1.92;3.39;5.58;-3.2;-4.12;-10.62;-7.14;-6.87;2.29;-6.41;-6.96;-6.68;-7.23
0.91;-0.82;6.77;2.84;3.57;4.12;-0.09;-10.62;-12.54;-4.03;1.01;-8.15;-2.75;-4.12;1.19
0.91;5.77;9.98;-1.74;6.04;-3.85;-1.56;-6.41;-11.81;-3.39;-7.05;-9.34;-0.09;-1.01;-6.04
0.92;5.95;-2.11;2.29;4.12;-2.75;-0.09;-7.97;-9.34;-9.61;-3.39;-17.85;3.57;-6.32;-9.25
0.92;0.37;3.75;5.4;-3.75;3.57;-8.61;-13.46;-5.04;-18.22;-1.56;-17.12;5.77;-0.09;-2.38
0.93;-0.82;-0.18;-4.12;2.75;-6.87;-3.2;7.78;-12.73;-3.2;-6.87;-17.3;5.58;-2.75;-11.99
0.93;-1.56;2.66;2.66;4.94;-0.09;2.84;4.58;-13.73;-3.02;-9.98;-10.71;10.71;-5.4;-3.39
0.94;0.82;-2.84;-1.46;4.49;6.5;3.39;-2.47;-5.22;-8.79;-13;-5.58;9.8;-8.33;-1.19
0.94;-0.82;-3.2;-1.28;-0.82;8.7;-0.09;8.88;-5.4;-10.71;-21.06;-10.16;9.16;-12.27;-11.99
0.95;0.73;-2.66;-3.2;3.11;13.09;-0.18;0.64;-5.95;-10.44;-9.43;-11.26;12.08;-5.49;-6.96
0.95;-0.55;3.57;-3.39;5.31;6.87;-4.3;-4.76;-7.6;-7.05;-7.87;-12.82;6.5;-8.7;-8.33
0.96;4.67;2.11;1.01;4.94;7.97;2.93;-15.84;-2.29;-9.43;-7.97;-13;2.47;-18.04;-4.94
0.96;-1.92;-3.3;-3.2;8.97;4.85;9.16;-18.04;-2.84;-13.64;-3.02;-2.38;5.58;-7.6;-5.4
0.97;4.49;-0.64;5.04;4.67;2.11;8.33;-14.83;-0.09;-10.89;1.92;1.19;7.97;-11.44;-9.25
0.97;4.85;4.85;-0.82;4.49;-2.01;4.49;-14.83;0.27;-9.61;-6.32;13.82;3.75;-13.46;-7.78
0.98;6.5;3.2;2.66;-0.09;1.01;3.02;-14.83;-2.11;-12.73;-3.39;11.81;5.22;-6.13;-7.14
0.98;6.77;0.18;-3.39;6.77;-1.56;4.85;-14.83;-1.19;-17.3;-6.04;3.02;7.23;-1.19;-3.11
0.99;2.01;0.64;-1.92;7.14;9.25;3.94;-14.83;-2.29;-12.18;-5.22;-0.18;13;-11.9;-5.95
0.99;6.5;-3.57;0.09;3.75;-4.67;-0.46;-14.83;-10.35;-10.62;-6.13;-0.73;7.23;-9.61;-1.92
1;1.37;-14.56;2.11;5.04;-2.75;1.74;-14.83;-9.25;-18.77;-13.64;-0.82;2.11;-5.31;-8.61
1;-0.27;-9.8;-2.75;4.3;3.3;0.64;-14.83;-0.46;-14.74;-3.57;-10.07;1.92;-8.51;-7.78
1.01;3.75;-0.37;3.57;0.64;-0.64;7.23;-14.83;10.8;-18.13;-7.6;-3.85;-0.55;-2.11;-6.87
1.01;1.19;-4.85;-2.01;2.11;13.55;4.49;-14.83;9.06;-7.23;-1.37;-2.11;-8.88;-2.38;-9.06
1.02;-0.92;-6.87;-6.13;-3.11;4.67;1.65;-14.83;5.77;-11.9;-3.2;3.2;-13.09;-0.92;-4.12
1.02;6.13;-9.06;-2.11;4.12;7.51;3.57;-14.83;-0.09;-9.43;-4.03;-9.61;-30.12;-5.95;-7.23
1.03;6.5;-9.61;1.56;6.41;3.75;12.54;-14.83;-8.33;-10.53;-0.09;-9.8;-18.77;-12.36;-2.66
1.03;8.15;-2.84;6.77;5.22;0.55;6.41;-14.83;-11.54;-5.22;-2.29;-7.42;-24.08;-4.49;-3.39
1.04;8.15;-8.88;6.77;5.22;2.56;5.86;-9.43;-11.35;-5.58;-9.16;-4.58;-25.18;0.18;-6.68
1.04;8.15;-3.48;6.77;5.22;-5.4;6.87;-11.99;-5.31;-18.04;1.65;-11.44;-28.2;-7.87;-1.37
1.05;8.15;-7.97;6.77;5.22;-4.21;-8.51;3.94;-8.51;-13.64;-3.39;8.06;-14.47;-8.7;-3.11
1.05;8.15;-0.09;6.77;5.22;-3.57;-1.01;6.13;1.56;-15.93;-0.82;1.01;-7.23;-5.95;-0.64
1.06;8.15;-0.09;6.77;5.22;0.27;-3.94;15.2;3.57;-13.46;-3.2;-11.44;-11.35;-14.28;-7.23
1.06;8.15;4.03;6.77;5.22;3.39;-3.2;10.53;1.92;-6.04;-5.04;-3.75;-13;-6.13;-1.19
1.07;8.15;-1.01;6.77;5.22;0.82;-3.85;7.51;-6.87;-17.49;-2.75;-4.58;-19.87;-7.78;-11.99
1.07;8.15;-0.27;6.77;5.22;-5.22;5.77;3.02;5.04;-15.56;7.78;-6.32;-6.68;-19.87;-3.02
1.08;8.15;-5.49;6.77;5.22;6.87;-2.38;7.97;2.11;-20.51;3.66;-3.39;-6.68;-11.08;-3.02
1.08;8.15;4.67;6.77;5.22;5.77;-2.29;6.87;-5.31;-25.91;-1.01;-2.56;-4.3;-11.54;0.64
1.09;8.15;4.3;6.77;5.22;-0.18;8.51;4.39;-0.92;-23.53;-9.06;-0.82;-1.74;-10.53;-11.44
1.09;8.15;5.4;6.77;5.22;-1.74;4.85;1.1;5.95;-21.7;-6.87;-7.42;-0.18;-12.18;-9.8
1.1;8.15;5.68;6.77;5.22;1.56;-2.56;-9.61;-1.01;-12.54;-1.28;-4.21;-3.3;-10.53;-4.12
1.1;8.15;10.16;-3.75;1.01;0.27;1.19;-7.51;-0.18;-15.11;-7.6;-0.73;3.75;0.46;-9.34
1.11;8.15;5.58;-6.32;-5.31;-5.4;-3.94;-5.95;5.95;-15.84;-6.5;-5.22;2.66;-7.23;-5.22
1.11;8.15;9.8;-1.28;-0.09;-2.75;-6.5;-5.22;13.64;-4.94;-7.05;-8.7;3.2;-6.13;-3.2
1.12;8.15;7.78;-5.22;0.82;-3.48;-1.92;-3.75;2.47;-5.58;-1.01;-13.37;13.28;-5.77;-4.12
1.12;8.15;7.14;-3.02;3.39;1.65;-0.82;0.27;6.59;-7.14;-5.77;-15.2;3.57;-3.39;1.1
1.13;8.15;7.23;0.55;-2.11;-0.82;-2.84;-1.56;6.13;-10.44;-2.75;-5.04;-2.11;-3.3;-5.77
1.13;8.15;11.54;0.92;2.66;-2.93;-6.87;0.37;11.08;-11.26;4.67;-1.56;1.37;-10.25;-8.61
1.14;8.15;7.78;-3.75;2.29;2.11;-3.57;-6.96;7.51;-9.8;6.5;-8.33;-12.08;-7.05;-3.94
1.14;8.15;3.57;0.82;-2.66;1.92;-6.13;-9.16;13.64;-7.32;0.27;-7.6;-15.11;-10.53;-2.47
1.15;8.15;6.87;-6.13;-0.46;3.02;0.64;-5.77;12.82;-9.34;-0.46;-8.97;-22.8;-9.06;-0.64
1.15;8.15;-6.77;-10.71;3.75;-8.97;5.04;-7.05;3.3;-13.55;-5.58;-5.04;-28.75;-9.43;-6.13
1.16;8.15;2.29;-5.04;1.74;3.02;1.65;-12.54;8.7;-15.11;-9.61;-1.56;-17.76;-15.47;-11.35
1.16;8.15;4.85;6.41;0.92;4.3;1.56;-14.92;4.58;-14.01;-6.68;-1.37;-8.42;-3.2;-5.31
1.17;-1.1;7.14;-6.32;4.12;6.5;4.3;-14.92;-1.46;-19.32;-7.78;1.92;-3.2;-4.58;-4.85
1.17;-0.92;3.2;1.19;1.56;-0.82;-5.22;-14.92;4.85;-16.3;-5.77;5.77;-2.47;-6.04;0.64
1.18;0.82;-3.75;-6.59;10.16;-1.65;0.46;-14.92;1.74;-17.21;-3.66;-1.92;-2.66;-5.31;-1.01
1.18;0.55;-4.49;-7.05;4.85;-8.97;-3.39;-14.92;0.09;-10.89;-5.4;-2.01;2.47;-10.07;0.46
1.19;-4.94;-10.89;-2.66;5.58;1.1;-1.92;-14.92;-4.12;-7.05;-0.27;-2.01;-0.09;-11.44;-5.22
1.19;6.13;-9.8;-3.3;6.68;-5.22;4.3;-14.92;9.8;-12.54;-5.4;-1.01;7.23;-7.97;-3.75
1.2;0.46;-7.6;-0.46;6.13;-1.19;0.82;-14.92;-4.49;-9.61;-8.61;-2.47;1.74;-9.61;-1.01
1.2;3.48;-3.75;-5.31;4.12;0.82;-0.18;-14.92;7.87;-6.68;-8.51;-1.37;5.31;-4.49;-3.39
1.21;3.66;4.67;-4.49;4.49;0.37;5.58;-14.92;2.75;-4.85;-3.11;4.12;14.83;-5.95;2.01
1.21;2.01;5.22;-0.27;5.04;2.38;-2.66;-14.92;0.27;-3.39;2.84;1.01;3.94;-13.82;-6.13
1.22;1.83;7.42;-3.2;4.49;-0.27;2.84;-14.92;3.02;-13.09;-0.09;-3.57;-0.82;-12.73;-2.29
1.22;5.4;4.12;2.11;2.01;3.85;1.19;-14.92;1.56;-10.89;3.94;-10.35;8.51;-9.25;-6.5
1.23;5.4;10.89;-4.67;3.11;-2.2;-1.01;-14.92;3.3;-8.33;-1.92;6.13;6.68;-4.85;-6.23
1.23;1.19;15.56;-4.67;3.11;-3.57;0.82;-17.12;3.3;-12.36;-5.04;-6.68;4.49;-1.92;-0.64
1.24;1.19;16.57;-4.67;3.11;-4.39;-1.37;-19.32;3.3;-10.07;-0.82;-7.6;-2.56;-1.37;-1.01
1.24;6.5;16.2;-4.67;3.11;3.2;1.01;-20.6;3.3;-12.73;-6.68;-11.44;3.39;-15.29;-0.09
1.25;5.22;16.75;-4.67;3.11;-1.92;-2.11;-21.7;3.3;-12.91;-11.63;-10.53;1.56;-8.51;-10.25
1.25;10.44;3.39;-4.67;3.11;1.65;0.64;-24.44;3.3;-6.5;-11.17;-18.4;5.04;0.09;-6.87
1.26;13.64;9.8;-4.67;3.11;-1.01;-7.78;-8.06;3.3;-5.68;-12.54;-16.75;-1.37;-10.89;-8.7
1.26;5.4;1.56;-4.67;3.11;1.56;-3.39;-4.21;3.3;-4.21;-11.63;-8.97;2.47;-3.75;1.37
1.27;9.25;10.89;-4.67;3.11;4.67;-0.09;-7.51;3.3;-11.9;-0.27;-11.63;3.57;-2.01;-10.89
1.27;10.62;9.89;-4.67;3.11;8.51;-0.09;2.11;3.3;-14.92;2.11;-17.85;-1.01;-4.21;-3.2
1.28;-3.2;-5.4;-4.67;3.11;3.2;-0.09;-5.22;3.3;-15.93;-8.33;-6.13;-7.87;-5.31;-4.49
1.28;-7.78;0.64;-4.67;3.11;9.43;10.71;3.2;3.3;-5.95;-6.87;-11.17;-8.33;-6.41;-1.19
1.29;-3.94;-0.18;-4.67;3.11;2.01;5.4;6.04;3.3;-12.27;-6.68;-12.73;-5.22;-10.53;-2.11
1.29;-0.09;0.09;-4.67;3.11;-2.47;-2.11;16.57;3.3;-0.82;-7.05;-11.26;-6.59;-7.6;-4.67
1.3;-0.09;2.11;-4.67;4.12;-3.85;1.46;10.53;-2.01;-9.43;-0.27;-9.34;-12.63;2.29;-3.39
1.3;-0.09;2.93;-4.67;6.32;1.83;3.94;6.41;-1.56;-9.98;0.46;-9.43;-11.99;-2.01;-5.04
1.31;-0.09;2.84;-4.67;5.4;-0.09;-3.02;5.95;3.3;-14.19;-5.22;-5.4;-12.54;-4.94;-1.01
1.31;-0.09;0.64;-4.67;8.51;1.65;-6.87;7.6;8.51;-11.99;5.04;-7.78;-14.47;-6.04;-4.67
1.32;-0.09;2.38;-4.67;3.94;7.23;-0.82;10.07;6.04;-1.83;-5.58;-1.01;-7.05;-5.04;-2.84
1.32;-0.09;-0.09;-4.67;7.05;4.58;1.74;5.4;13.64;-5.04;-10.07;0.46;-13.64;-3.48;-5.86
1.33;-0.09;1.1;-4.67;6.04;-10.62;-6.96;4.49;10.16;-7.97;-7.78;3.75;-7.78;-6.68;-4.03
1.33;-0.09;0.64;-4.67;2.38;-1.92;-8.24;-1.28;-1.56;-3.48;-10.53;-2.56;-14.01;-0.27;-5.22
1.34;-0.09;3.94;-4.67;5.04;4.67;-5.77;1.92;1.92;2.66;1.56;-0.09;-1.1;-9.89;-11.17
1.34;-0.09;-0.55;-4.67;3.39;2.29;-4.03;-0.27;-1.46;6.32;-9.06;-1.74;3.94;-17.49;-4.3
1.35;-0.09;1.74;-4.67;6.87;8.97;-5.77;5.58;-4.94;0.64;-2.01;2.47;-1.74;1.74;-4.49
1.35;-0.09;-7.69;-4.67;1.74;4.58;0.18;5.58;-3.57;3.57;-1.19;6.59;0.73;-1.37;-4.76
1.36;-0.09;-3.75;-4.67;3.39;-3.94;-2.75;5.58;-9.61;-2.56;-2.84;20.78;11.17;-6.13;-3.39
1.36;2.75;1.37;8.33;3.39;1.28;-4.94;2.47;-0.37;-3.02;-4.85;14.1;13.64;-0.09;-9.25
1.37;1.28;0.82;-1.74;1.65;-4.39;5.04;1.01;-0.09;-15.84;0.64;9.8;17.21;-5.68;-3.39
1.37;-1.01;0.55;5.49;9.98;-6.59;-4.85;4.03;11.63;-6.32;8.33;-0.09;7.6;-8.97;-2.38
1.38;-2.84;-3.2;-2.29;2.11;-4.85;1.01;6.87;4.67;-10.71;-1.74;-8.15;9.7;-15.93;-1.74
1.38;4.85;-1.65;0.64;3.02;-10.35;-6.68;12.54;-6.87;2.11;-1.92;-2.47;3.02;-0.09;-0.09
1.39;7.97;-2.47;-3.75;5.68;0.18;-1.28;11.44;4.03;-12.36;-2.66;5.04;12.63;-5.58;-0.92
1.39;1.83;-6.68;-4.12;4.67;-5.77;-3.94;9.8;1.37;-5.68;-7.23;2.11;15.29;-10.53;-3.57
1.4;6.5;4.49;-2.66;1.56;-0.09;-10.89;6.96;8.7;-5.22;-3.75;6.32;9.61;-8.97;-5.31
1.4;5.31;4.12;-3.11;3.02;5.31;-4.58;2.66;11.63;-9.8;1.56;1.19;12.45;-9.34;-17.12
1.41;8.61;4.67;-4.12;4.67;-2.47;-0.27;5.4;12.08;-11.26;-2.47;2.84;12.08;-5.95;-4.85
1.41;5.22;8.24;-0.27;4.12;-1.56;-3.2;1.28;-0.09;-3.39;12.73;-7.6;5.58;0.46;-6.68
1.42;13.09;7.14;7.05;-1.37;-3.39;-2.38;1.19;6.5;-13.46;4.49;-6.68;1.19;-8.88;-9.61
1.42;17.4;0.18;0.55;-0.55;-0.09;-2.47;-3.02;2.47;-13;3.75;1.92;6.41;-7.51;0.64
1.43;11.63;10.89;-1.28;4.12;-0.09;-2.47;-2.38;4.3;-12.27;2.01;-1.74;6.5;-1.37;-4.85
1.43;2.38;13.64;-1.01;-1.1;-0.09;-2.47;-8.15;6.41;-11.54;2.11;-5.58;-0.09;-7.05;4.49
1.44;8.06;11.81;0.27;8.51;-0.09;-2.47;-7.6;3.02;-9.43;-3.75;-2.75;-2.84;-5.4;-1.46
1.44;9.52;3.2;-1.56;2.84;-0.09;-2.47;-3.39;-1.1;-16.57;3.39;-2.66;-13.09;-9.8;-3.75
1.45;2.11;10.89;-3.85;5.4;-0.09;-2.47;-2.66;-3.2;-7.6;-1.74;-7.87;-22.61;-5.77;3.02
1.45;9.8;2.66;2.29;10.16;-0.09;-2.47;-0.09;-2.38;-8.7;4.85;-10.35;-27.01;-4.3;-0.09
1.46;3.02;5.86;-0.82;3.02;-0.09;-2.47;3.11;1.92;-5.31;-8.51;-1.92;-31.22;-4.67;-3.48
1.46;9.8;5.13;-6.5;-9.7;-0.09;-2.47;-0.55;9.43;-7.6;-10.35;-3.39;-28.66;-11.26;-4.85
1.47;0.46;11.08;-1.92;3.02;-0.09;-2.47;-7.42;11.44;-5.49;1.56;-9.43;-13.46;-4.21;0.27
1.47;2.66;9.25;-4.67;5.58;-0.09;-2.47;-10.71;15.47;-4.58;3.75;-17.03;-4.39;-16.66;0.27
1.48;-4.3;7.14;-2.38;-1.28;-0.09;-2.47;-2.11;10.44;-10.07;1.19;-11.44;-8.33;-8.7;-3.02
1.48;-0.09;2.11;6.77;8.88;-0.09;-2.47;-1.56;6.13;-11.17;5.31;-11.26;-9.61;-8.33;-11.9
1.49;-6.04;2.29;-1.83;5.95;-0.09;-2.47;-2.47;10.8;-1.83;-1.01;-7.51;-3.2;-5.95;-5.77
1.49;-6.32;4.12;-1.83;6.13;-7.87;-5.77;-8.97;5.22;-10.89;0.27;-7.23;-3.94;-1.65;-7.42
1.5;-1.65;4.3;-1.83;-0.09;-2.84;2.01;-5.4;1.19;-6.04;-4.85;-6.04;-6.68;2.38;2.29
1.5;2.66;4.85;-1.83;9.25;-1.92;-1.92;-3.3;2.84;-4.85;-3.2;-6.32;-9.8;-10.35;-3.85
1.51;-6.5;-5.22;-1.83;9.25;-8.15;-6.68;2.84;1.19;-13.82;-2.29;-2.66;-10.35;-5.22;-4.67
1.51;-0.82;4.21;-1.83;7.05;-1.37;-7.14;2.11;1.92;-6.96;-6.87;-4.12;-12.36;-7.78;-2.84
1.52;-4.21;1.37;-1.83;1.19;-8.24;-3.75;-0.64;-2.01;-2.84;-12.18;-2.29;-11.26;-3.02;-5.77
1.52;-6.13;-7.42;-1.83;8.51;-5.95;-7.05;2.66;3.39;1.37;-2.11;3.02;-10.99;-10.8;-0.82
1.53;-1.92;0.82;-1.83;0.64;-2.29;-4.49;6.5;9.06;-0.37;-5.77;-10.07;-3.2;-9.43;-4.49
1.53;-2.66;1.92;-1.83;7.78;-0.46;-1.92;5.04;11.26;4.21;-5.86;7.78;5.58;-11.17;-2.75
1.54;-3.57;-5.58;-1.83;1.01;-1.74;-2.11;8.15;12.45;1.01;-0.82;-9.43;3.75;-13.73;-6.23
1.54;9.98;2.66;-1.83;2.47;-4.94;-2.47;-0.37;6.41;-5.4;-0.09;-4.67;7.97;-13;-8.88
1.55;-0.09;-9.43;-1.83;7.14;-2.66;1.56;-7.32;12.27;-4.49;-2.11;-8.97;-2.01;-18.4;-7.42
1.55;0.46;2.2;-1.83;8.7;-3.75;1.1;0.46;9.25;-16.11;0.27;-9.52;0.82;-0.09;-5.86
1.56;7.6;1.65;-1.83;7.87;1.74;1.1;-4.49;9.25;-9.06;-0.55;-8.7;0.64;-5.4;15.11
1.56;-0.37;5.77;-1.83;-0.82;-0.09;1.1;0.82;9.25;-7.97;-4.3;-5.22;0.09;-9.61;-5.68
1.57;-0.92;2.47;-1.83;4.12;-2.2;1.1;4.49;9.25;-8.33;-5.4;-11.81;-7.87;-2.11;3.57
1.57;-5.68;1.37;-1.83;3.02;1.74;1.1;3.2;9.25;-10.44;-3.94;-11.26;-1.37;-7.69;-6.5
1.58;2.01;-3.57;-1.83;-1.37;1.37;1.1;7.97;9.25;-5.49;-10.16;-7.14;-2.01;-2.66;0.27
1.58;0.92;1.56;-1.83;1.01;-3.48;1.1;1.37;9.25;-3.39;-7.05;3.75;-9.16;-2.29;-6.68
1.59;1.92;-1.28;-1.83;7.51;-0.82;1.1;9.43;9.25;-6.87;-11.08;3.48;-4.94;1.56;-5.58
1.59;0.64;1.37;-1.83;-7.14;4.49;1.1;3.75;9.25;-2.38;-5.95;-0.82;-3.3;-9.25;-3.85
1.6;-2.47;7.42;-1.83;9.61;2.93;1.1;-0.82;9.25;1.56;-4.85;0.18;-2.66;-11.08;-3.85
1.6;-12.54;8.97;-1.83;4.3;-0.18;1.1;-1.74;9.25;-12.27;-3.02;-3.57;-3.48;-6.87;-9.34
1.61;0.37;4.21;-1.83;9.8;1.28;1.1;1.01;9.25;-0.82;-1.74;-5.04;-1.74;-6.04;1.01
1.61;0.82;11.08;-1.83;3.02;6.32;1.1;-4.85;9.25;-4.58;-7.42;-9.16;5.68;-14.28;-8.51
1.62;-1.92;9.98;-1.83;-0.09;-3.94;1.1;-0.82;9.25;-6.32;-6.41;0.82;1.92;-0.46;-8.51
1.62;0.27;13.46;-1.83;0.37;-1.19;-3.39;1.56;-5.13;-4.76;-9.98;-4.3;-0.27;-6.04;-5.4
1.63;3.75;11.99;-1.83;-1.19;-1.28;-0.55;-1.74;-9.16;-10.25;-8.42;-4.94;-3.2;-9.61;-0.09
1.63;-6.13;11.99;-1.83;1.92;-2.01;2.47;-2.47;-7.6;-9.43;-10.07;-0.09;-0.09;-9.16;-4.94
1.64;-4.3;12.36;-1.83;6.68;0.46;-2.75;6.5;-12.18;-7.05;-9.06;2.47;1.92;-8.15;-0.09
1.64;-6.68;3.2;-1.83;2.66;-1.46;-0.73;-3.39;-12.54;-3.39;-10.89;-6.04;-6.13;-11.63;2.84
1.65;-3.39;10.35;-1.83;-1.37;1.01;-2.75;1.46;-13.37;1.65;-8.33;7.05;-2.84;-10.71;4.49
1.65;-4.67;-1.28;-1.83;-0.46;-13.28;-5.22;-0.09;-11.81;3.57;-6.04;4.3;-4.67;-7.32;-2.84
1.66;-2.29;-0.55;-1.83;1.28;-10.16;-5.77;-3.75;-7.23;-6.13;-5.95;6.68;-12.91;-14.1;-4.12
1.66;-5.22;-3.94;-1.83;2.47;-4.21;-8.97;-9.98;-8.7;3.02;4.94;0.27;-7.78;-16.02;-3.94
1.67;-3.39;3.57;-1.83;-0.46;-3.94;-7.78;-6.41;-5.4;2.66;-2.84;-0.46;-5.68;-6.13;0.64
1.67;-5.22;0.46;-1.83;2.66;-11.35;-5.4;-8.61;-6.23;2.29;3.11;-0.09;-4.49;-5.31;2.29
1.68;-10.71;0.64;-1.83;0.37;-8.7;-11.63;-3.02;-12.18;-3.85;-2.47;-11.81;-0.46;-12.18;-0.55
1.68;1.37;-7.14;-1.83;-3.94;-14.28;-10.16;-9.43;-10.07;-2.84;-3.75;-0.46;0.18;-7.23;-3.39
1.69;-12.82;-1.56;-1.83;1.37;-16.66;-7.69;-5.4;-5.68;-0.55;3.3;-4.21;1.1;-9.06;-5.22
1.69;-3.85;0.55;-1.83;6.23;-14.74;-8.97;3.3;0.46;-0.64;1.74;-7.05;6.04;-14.19;4.85
1.7;-4.49;-0.46;-1.83;6.87;-21.42;-16.94;4.49;10.53;-5.13;2.11;1.28;3.75;-8.97;-0.09
1.7;0.82;-1.37;-1.83;5.95;-16.94;-24.99;10.16;15.66;-6.87;-0.09;1.19;2.11;-8.51;5.4
1.71;3.11;-5.77;-1.83;1.92;-20.05;-22.52;8.51;20.14;0.46;-7.51;2.56;-7.69;-11.63;-1.74
1.71;-0.09;-5.77;-1.83;1.01;-26.18;-26.46;2.47;6.68;4.12;-1.37;-1.92;-16.57;-9.8;2.66
1.72;0.27;8.61;-1.83;-1.92;-35.25;-24.81;6.5;16.75;-0.64;3.39;6.04;-7.97;-9.06;-4.12
1.72;12.27;1.37;-1.83;4.67;-31.22;-32.14;3.3;15.47;-5.31;8.15;8.51;-5.77;-11.63;0.27
1.73;6.32;13.09;-1.83;1.92;-26.64;-23.35;16.94;13;-5.77;11.26;-2.29;-6.77;-7.51;2.47
1.73;3.57;10.62;-1.83;5.04;-30.67;-33.05;8.51;15.29;-6.32;3.2;-6.04;-1.92;-7.23;-5.04
1.74;0.18;3.2;-1.83;3.85;-23.16;-30.76;6.13;16.57;-3.2;1.01;-2.66;-7.87;-11.44;-0.82
1.74;2.47;11.17;-1.83;2.47;-23.25;-32.59;2.11;12.27;-15.66;5.95;-5.22;-10.89;-12.36;-3.11
1.75;11.9;3.57;-1.83;3.75;-28.29;-25.36;-0.09;19.68;-11.54;0.46;-6.32;-16.94;-7.42;-8.7
1.75;11.9;-6.5;-1.83;3.75;-31.04;-25.36;-3.75;11.35;-13.46;-7.97;-8.15;-3.94;-2.2;-2.47
1.76;11.9;8.7;-1.83;3.75;-35.06;-25.36;-3.94;17.85;-14.01;-2.75;-4.85;-7.97;-5.95;1.92
1.76;11.9;-1.01;-1.83;3.75;-25.54;-25.36;7.78;15.29;-10.89;-9.98;-8.24;-4.85;-6.68;-3.75
1.77;11.9;-0.09;-1.83;3.75;-34.33;-25.36;2.75;11.63;-8.15;-3.66;-5.77;3.66;-14.56;-5.58
1.77;11.9;-4.58;-1.83;3.75;-29.94;-25.36;-5.68;18.22;0.64;-2.29;-7.23;5.31;-8.33;-8.51
1.78;11.9;-9.61;-1.83;3.75;-24.44;-25.36;-8.33;8.33;-6.87;4.21;-5.04;-3.2;-9.98;-1.56
1.78;11.9;-1.56;-1.83;3.75;-27.28;-25.36;-14.74;1.19;-4.67;-2.11;-3.02;-8.51;-12.36;0.82
1.79;11.9;-8.15;-1.83;3.75;-39.09;-25.36;-5.95;2.38;-12.73;-6.68;-1.37;-1.56;-14.92;-4.67
1.79;11.9;-3.94;-1.83;3.75;-33.05;-25.36;-14.37;-0.46;-9.06;-5.4;-5.22;-4.03;-9.25;-3.39
1.8;11.9;6.04;-1.83;3.75;-37.63;-25.36;-15.75;-1.37;-3.94;3.57;-3.48;1.37;-13.09;-2.11
1.8;11.9;6.77;-1.83;3.75;-36.07;-25.36;-19.68;-12.36;-0.92;-0.09;-11.26;-0.82;-12.36;-3.02
1.81;11.9;11.54;-1.83;3.75;-35.34;-25.36;-15.75;-0.82;3.39;-1.37;-6.32;8.06;-4.76;1.19
1.81;11.9;6.32;-1.83;3.75;-34.33;-25.36;-13.09;-5.77;-3.3;-6.68;0.82;2.47;-9.8;-5.04
1.82;11.9;8.15;-1.83;-0.09;-34.33;-25.36;-8.61;-1.92;-0.55;-6.5;-5.95;5.22;-1.92;-8.15
1.82;11.9;11.81;-1.83;1.65;-44.77;-25.36;-8.61;1.01;-4.85;-5.13;-6.68;-3.2;-7.23;-0.09
1.83;11.9;10.71;-1.83;3.94;-46.97;-25.36;-9.34;-1.37;-20.97;-5.4;-3.02;3.94;-1.37;-1.19
1.83;11.9;8.61;-1.83;0.92;-32.41;-25.36;-11.44;-0.46;-14.01;-2.75;0.27;8.33;-3.94;0.64
1.84;11.9;16.66;-1.83;-0.37;-52.28;-25.36;-0.46;-5.4;-12.73;-6.87;5.31;1.01;-10.71;0.27
1.84;11.9;19.13;-1.83;-4.3;-46.6;-25.36;-2.75;-1.01;-20.6;3.39;-1.92;0.27;-9.43;-2.84
1.85;11.9;11.63;-1.83;1.46;-50.45;-25.36;-2.47;-7.14;-10.35;-4.85;11.08;-4.3;-11.99;-3.48
1.85;11.9;12.73;-1.83;3.48;-43.4;-25.36;-0.09;6.96;-10.8;-5.4;5.31;-9.25;-16.75;-2.84
1.86;11.9;4.12;-1.83;2.38;-39.18;-25.36;-3.11;-0.27;-19.59;4.58;9.98;2.2;-14.37;-12.73
1.86;11.9;-0.09;-1.83;1.37;-35.8;-25.36;-10.89;-4.67;-18.86;-1.74;5.04;3.66;-7.05;-8.61
1.87;11.9;2.29;-1.83;6.59;-31.4;-25.36;-0.82;-0.09;-22.34;-6.41;10.89;-4.12;-7.87;2.2
1.87;11.9;0.27;-1.83;1.74;-26.73;-25.36;-1.83;-17.85;-15.66;9.06;17.49;0.27;-7.6;-4.39
1.88;11.9;-3.57;-1.83;-5.13;-23.71;-25.36;-9.25;-9.43;-20.78;13.82;12.91;10.07;-6.32;0.64
1.88;-14.1;6.68;-0.55;3.2;-16.2;-37.72;-11.44;-2.84;-26.82;6.87;22.89;-9.61;-5.95;-4.49
1.89;-15.66;-0.18;0.64;3.85;-4.94;-33.05;-11.54;3.39;-28.66;1.74;35.43;-4.03;-3.39;-0.27
1.89;-15.29;0.64;-1.01;5.4;-2.93;-30.4;-5.77;-4.3;-28.29;11.9;40.37;-14.37;-7.05;-0.64
1.9;-21.51;-4.3;0.27;7.14;-1.37;-30.94;1.56;2.47;-31.77;0.27;40.1;-11.26;-7.05;-8.15
1.9;-22.25;-12.08;-2.66;-0.46;5.04;-28.11;0.27;5.4;-19.59;-5.04;31.31;-13.64;-5.04;-6.5
1.91;-16.02;-7.42;-0.09;-6.13;13.64;-34.15;3.11;10.62;-26.73;-3.11;39;-15.2;-0.09;-1.01
1.91;-16.39;-10.8;-5.77;6.32;22.06;-26.18;7.32;6.87;-27.74;-4.49;33.14;-8.33;-7.78;-2.84
1.92;-18.31;-14.28;1.56;4.58;23.99;-22.25;-2.66;12.73;-31.49;-5.22;30.94;-2.66;-11.81;-5.04
1.92;-19.59;-16.39;-3.39;2.11;45.68;-18.68;2.56;21.06;-28.84;-7.05;19.59;-5.95;-7.42;-17.3
1.93;-21.7;-8.33;-2.29;-2.01;57.22;-7.05;-6.5;14.83;-33.97;-7.42;21.42;1.56;-3.39;-8.15
1.93;-27.19;-24.44;-4.49;6.5;66.01;-1.74;-2.47;15.47;-33.97;-10.44;23.07;-2.47;-7.78;-3.02
1.94;-24.63;-23.9;1.74;4.3;68.12;10.07;-9.61;16.75;-32.14;-19.13;24.26;-5.58;-5.95;-5.49
1.94;-25.09;-24.17;-1.74;1.92;77;7.6;-6.68;6.59;-27.47;-20.97;30.12;1.01;-2.01;-8.15
1.95;-25.09;-29.75;-3.11;-3.75;84.5;19.32;-13.92;15.84;-35.98;-12.73;29.94;-1.56;-3.75;-3.02
1.95;-25.09;-17.85;-2.38;1.46;94.67;21.33;-9.34;10.71;-24.99;-12.54;20.97;-4.85;-7.14;-1.1
1.96;-25.09;-25.45;-2.84;6.68;104.46;23.99;-10.53;22.98;-36.8;-16.39;18.22;-3.75;4.49;-18.86
1.96;-25.09;-31.49;-7.97;2.56;112.15;34.24;-5.58;10.71;-41.11;-21.33;15.56;0.82;2.29;-12.36
1.97;-25.09;-34.88;-5.77;-1.19;118.01;30.67;-2.47;11.63;-31.4;-16.3;20.42;9.98;-1.37;-6.68
1.97;-25.09;-41.84;-0.55;6.13;120.94;38.18;-4.21;19.5;-40.19;-18.4;19.23;-1.37;-3.75;-7.97
1.98;-25.09;-38.27;-11.9;1.37;127.53;42.3;-1.56;17.85;-39.09;-26.18;9.61;7.97;-3.2;-9.25
1.98;-25.09;-46.97;-6.87;4.58;127.9;42.39;4.76;21.42;-30.12;-24.99;9.98;-3.2;-2.29;-14.1
1.99;-25.09;-44.95;-7.23;3.75;130.55;36.9;7.6;15.84;-41.2;-20.23;5.68;-6.68;-3.39;-13.64
1.99;-25.09;-45.5;-4.3;3.2;125.15;59.51;9.06;9.25;-40.83;-22.98;7.23;-21.42;-0.09;-10.16
2;-25.09;-45.32;-6.5;5.58;133.03;58.69;20.42;11.44;-35.98;-21.51;-0.55;-10.44;0.46;-8.88
2;-25.09;-46.05;0.64;4.85;124.97;60.52;16.48;8.42;-26.92;-22.61;-1.65;-11.26;-1.01;-6.32
2.01;-25.09;-51.18;-2.66;9.61;126.98;63.63;17.76;7.78;-21.88;-22.25;0.09;-13.73;3.2;-12.54
2.01;-43.4;-53.38;-2.66;9.61;126.98;72.97;23.62;7.78;-28.29;-19.78;-4.85;-7.42;-0.27;-5.04
2.02;-35.71;-45.32;-2.66;9.61;126.98;62.35;10.8;7.78;-24.63;-21.15;-13.82;-11.99;-2.38;-7.6
2.02;-32.41;-39.09;-2.66;9.61;126.98;77.82;11.81;7.78;-16.3;-19.87;-9.25;-17.12;2.11;-7.78
2.03;-35.43;-40.56;-2.66;9.61;126.98;71.32;5.4;7.78;-21.79;-26;-10.35;-2.75;-0.27;-7.6
2.03;-29.75;-46.05;-2.66;9.61;126.98;72.05;20.78;7.78;-9.8;-17.3;-8.51;-5.77;1.74;-2.47
2.04;-35.8;-38.54;-2.66;9.61;126.98;76.63;4.49;7.78;-10.71;-19.5;-7.51;-10.89;4.58;-6.13
2.04;-24.26;-35.8;-2.66;9.61;126.98;78.09;7.42;7.78;-5.4;-24.63;-7.23;-9.34;3.48;-8.06
2.05;-24.44;-29.39;-2.66;9.61;126.98;81.21;7.69;7.78;-5.22;-12.18;-12.82;1.37;2.11;-5.58
2.05;-20.97;-22.61;-2.66;9.61;126.98;74.8;3.75;7.78;2.66;-10.89;-16.75;1.1;-1.01;-12.54
2.06;-19.32;-22.06;-2.66;9.61;126.98;79.01;2.66;7.78;-3.66;-6.13;-22.25;0.37;3.57;-10.44
2.06;-18.59;-19.78;-2.66;9.61;126.98;80.29;2.38;7.78;-1.92;-8.42;-30.85;8.51;-3.39;-5.49
2.07;-14.37;-16.2;-2.66;9.61;126.98;80.93;-1.19;7.78;-0.09;-11.81;-26.46;4.03;6.13;-11.44
2.07;-9.06;-11.81;-2.66;9.61;126.98;68.94;-6.87;7.78;-0.27;-3.39;-29.57;5.77;3.57;-7.05
2.08;-4.67;-11.08;-2.66;9.61;126.98;73.61;3.57;13.28;2.29;5.58;-24.72;5.77;0.55;-10.53
2.08;0.82;-5.04;-2.66;9.61;126.98;66.38;2.84;4.12;7.05;3.11;-30.3;6.04;4.21;-5.22
2.09;4.12;-5.77;-2.66;9.61;126.98;66.56;11.44;3.85;-3.11;0.73;-18.59;5.58;6.23;-2.84
2.09;3.75;-2.01;-2.66;9.61;126.98;58.32;16.75;1.92;3.57;-6.87;-21.51;5.04;0.82;-4.3
2.1;11.08;3.57;-2.66;9.61;126.98;52.64;11.44;0.46;16.66;8.97;-25.73;7.69;3.75;-3.2
2.1;15.29;5.58;-2.66;9.61;126.98;49.71;10.89;1.19;9.7;2.66;-30.12;2.47;0.73;-3.02
2.11;24.99;9.98;-2.66;9.61;126.98;40.83;20.69;5.68;13.55;1.01;-28.11;6.68;-0.64;-2.01
2.11;18.4;12.91;-2.66;9.61;126.98;35.43;18.77;7.05;3.02;6.41;-32.5;7.05;4.85;-6.13
2.12;30.67;11.99;-2.66;9.61;126.98;27.92;12.18;10.71;11.26;20.69;-34.15;3.11;-5.04;-5.31
2.12;25.63;19.87;-2.66;9.61;126.98;32.14;10.71;8.97;5.31;9.16;-28.02;1.37;-2.2;-11.08
2.13;25.73;15.93;-2.66;9.61;126.98;33.51;0.82;16.02;3.57;16.48;-35.34;3.11;-8.42;-3.2
2.13;29.57;21.79;-2.66;9.61;126.98;33.42;1.74;11.26;5.58;17.49;-28.93;5.31;-5.58;-5.04
2.14;34.88;27.01;-2.66;9.61;126.98;31.68;3.94;6.5;14.47;12.82;-24.26;-0.55;2.56;-5.49
2.14;26.09;26.09;-3.57;2.38;-26.46;29.02;11.63;2.11;1.83;5.4;-27.1;1.19;-0.09;0.64
2.15;31.59;30.85;1.56;0.27;-39.18;31.59;4.67;-4.39;-0.46;3.2;-26.64;-6.13;-0.27;3.02
2.15;36.44;34.15;-7.05;-0.09;-37.45;25.82;3.11;-3.2;-3.94;6.5;-26.82;-10.71;-8.15;5.04
2.16;34.88;35.8;-6.87;-0.46;-41.47;25.73;-5.4;-7.51;-1.92;3.57;-30.3;-17.3;-9.8;0.82
2.16;36.25;31.4;-2.66;-0.55;-41.93;26.09;-3.94;-14.92;8.15;-2.47;-27.19;-21.15;-3.94;-1.19
2.17;33.23;31.68;2.01;3.75;-32.87;23.71;-7.6;-13.28;5.4;8.15;-23.16;-14.1;1.56;-0.64
2.17;32.87;33.42;-1.1;-1.01;-36.07;25.36;-3.11;-17.85;-0.09;6.5;-22.52;-11.26;-13.82;2.11
2.18;42.76;35.43;-1.01;-1.74;-41.84;21.51;4.85;-3.48;2.38;0.92;-25.18;-6.04;-14.37;-3.39
2.18;40.01;33.23;-4.3;-4.21;-37.26;16.02;5.49;-2.11;-7.05;0.27;-25.45;-0.09;-14.01;-7.6
2.19;41.66;29.94;-5.95;-2.29;-43.67;18.95;0.73;-0.82;-15.29;-3.94;-26.09;2.47;-7.14;2.84
2.19;35.06;31.4;-0.09;-4.94;-48.25;15.29;-5.95;-3.2;-7.6;-12.73;-18.04;-2.29;-9.98;-5.58
2.2;40.01;42.3;3.75;-4.85;-37.26;15.66;-3.2;3.11;-2.29;-11.63;-28.38;4.76;-12.08;-5.04
2.2;34.52;33.78;-4.76;3.57;-39.28;5.4;-11.99;-3.2;-3.57;-8.97;-19.13;6.13;-7.42;-4.85
2.21;36.07;32.14;0.46;1.28;-43.49;8.42;-15.01;-3.2;1.92;-5.4;-27.19;6.87;-13.18;-0.82
2.21;28.02;37.08;-0.09;1.56;-44.77;6.87;-12.73;-3.2;4.67;0.46;-17.67;2.66;-10.53;10.35
2.22;29.39;36.44;-1.92;3.11;-52.09;3.48;-19.87;-3.2;-0.09;-4.12;-16.57;1.74;-10.89;1.92
2.22;22.43;34.42;-4.49;5.4;-53.56;-0.82;-9.61;-3.2;1.74;-7.78;-13.09;13.28;-10.16;1.01
2.23;24.26;32.96;-2.01;1.56;-51.18;-7.05;-18.22;-3.2;2.93;-7.05;-15.11;18.4;-13.82;0.27
2.23;27.92;22.8;-6.68;1.01;-59.23;-12.73;-11.26;-3.2;0.82;-12.54;-11.44;16.2;-16.39;-4.58
2.24;29.39;21.79;-0.09;3.57;-61.43;-15.84;-5.22;-3.2;3.57;-7.14;-21.7;7.23;-7.6;-6.13
2.24;26.18;26.46;4.21;3.02;-47.33;-21.61;-16.02;-3.2;10.44;3.39;-9.25;5.4;-4.21;-2.29
2.25;25.45;21.15;-1.74;-3.94;-54.84;-18.95;-18.22;-3.2;1.46;5.95;-9.8;6.68;-4.85;3.3
2.25;28.11;25.18;0.82;-1.37;-51.64;-25.18;-24.44;-3.2;7.51;-3.39;-8.51;2.84;-10.71;-8.61
2.26;23.9;23.8;1.74;0.64;-47.88;-21.79;-29.94;-3.2;9.06;-1.37;3.48;2.66;-12.91;-5.58
2.26;27.01;21.79;3.57;1.19;-47.79;-16.66;-30.67;-3.2;11.9;3.94;7.97;5.49;-3.75;-0.55
2.27;24.63;23.71;-7.42;-1.92;-46.97;-16.11;-29.39;-3.2;10.89;6.96;14.74;3.57;-5.95;0.92
2.27;24.63;23.9;-7.42;-1.92;-47.61;-19.96;-29.39;-12.63;7.78;11.9;13.28;6.68;-5.86;-4.49
2.28;24.63;22.52;-7.42;-1.92;-48.43;-23.71;-33.6;-13.09;-2.29;16.57;21.42;-8.7;-2.38;-0.82
2.28;24.63;18.68;-7.42;-1.92;-50.63;-32.87;-23.71;-17.76;-1.01;14.83;4.12;-4.85;-6.41;1.74
2.29;24.63;13.37;-7.42;-1.92;-47.15;-28.2;-20.42;-24.35;0.64;4.85;-1.83;-2.11;-9.7;4.85
2.29;24.63;8.51;-7.42;-1.92;-47.42;-26.28;-15.75;-25.73;8.79;3.39;-10.53;-13.09;-9.43;2.29
2.3;24.63;11.63;-7.42;-1.92;-47.15;-33.05;-14.74;-14.19;0.18;1.74;1.74;-11.99;-6.13;0.82
2.3;24.63;10.07;-7.42;-1.92;-42.57;-37.45;-6.32;-11.81;-2.84;0.73;4.67;-15.01;-9.34;-2.01
2.31;24.63;6.04;-7.42;-1.92;-42.57;-37.08;-3.85;-15.84;-6.41;-0.64;-16.02;-19.04;-14.37;-5.58
2.31;24.63;2.11;-7.42;-1.92;-35.25;-34.15;-6.04;-16.75;-1.46;4.3;-14.19;-13.46;-10.35;-0.09
2.32;24.63;7.05;-7.42;-1.92;-39.55;-36.9;-1.19;-9.52;-6.32;0.82;0.46;-10.07;-11.08;1.92
2.32;24.63;-1.74;-7.42;-1.92;-37.35;-41.84;-3.11;-12.18;-5.04;6.23;-8.7;-16.02;-9.98;-1.74
2.33;24.63;0.64;-7.42;-1.92;-32.68;-30.12;3.39;-14.56;-5.49;-4.3;0.27;-8.33;-7.14;-0.09
2.33;24.63;7.23;-7.42;-1.92;-26.09;-31.95;8.15;-11.35;-1.19;5.68;-0.09;-5.13;-5.95;-8.33
2.34;6.5;7.23;-7.42;-1.92;-31.59;-45.04;5.04;-9.98;11.99;-0.09;-5.4;-4.85;-6.68;-3.2
2.34;10.07;7.23;-7.42;-1.92;-39.28;-37.9;7.23;6.41;-6.87;0.82;-1.37;-0.09;-2.66;0.27
2.35;9.52;7.23;-7.42;-1.92;-35.16;-38.91;3.57;1.37;-9.16;3.75;0.46;-5.4;2.11;-1.37
2.35;-1.19;7.23;-7.42;-1.92;-44.13;-36.9;3.11;6.32;-7.78;1.19;2.66;-4.58;-3.94;-1.74
2.36;-3.02;7.23;-7.42;-1.92;-35.8;-43.85;1.19;4.67;-2.01;3.3;-1.37;-5.22;-2.01;-2.84
2.36;5.04;7.23;-7.42;-1.92;-36.44;-43.67;6.13;2.29;-3.75;-2.47;-6.87;-7.97;-7.23;-7.23
2.37;2.47;7.23;-7.42;-1.92;-31.22;-40.37;3.39;8.33;-1.83;1.65;3.57;-9.25;-2.47;-2.29
2.37;7.05;7.23;-7.42;-1.92;-32.14;-42.11;-2.2;18.22;-7.05;6.87;-0.82;-10.25;-0.55;-4.3
2.38;7.05;7.23;-7.42;-1.92;-26.09;-42.94;-6.13;13.82;-2.47;9.43;0.27;-9.06;-10.89;-5.77
2.38;3.11;7.23;-7.42;-1.92;-25.82;-36.35;-7.23;6.68;-4.49;7.78;-2.29;-3.57;-3.3;-6.41
2.39;0.73;7.23;-7.42;-1.92;-23.9;-37.17;-9.43;6.13;-4.39;8.24;-8.42;-5.58;-1.65;-11.08
2.39;3.75;7.23;-7.42;-1.92;-22.43;-40.37;-12.18;4.85;-9.43;1.74;-4.67;-1.28;-4.85;-5.77
2.4;6.5;7.23;-7.42;-1.92;-22.43;-30.12;-7.05;7.97;-4.67;11.08;-4.49;-1.37;1.37;-1.37
2.4;8.88;-5.95;6.5;0.46;-20.05;-27.37;-1.74;4.85;0.64;-1.01;7.97;-2.11;-3.75;-0.82
2.41;9.16;-1.92;-1.92;-0.27;-16.94;-23.16;-3.57;2.11;-0.55;4.21;8.15;-2.29;-0.64;-3.85
2.41;12.36;3.94;1.37;3.2;-8.33;-29.02;1.56;12.82;0.64;2.29;14.65;2.29;-5.22;2.11
2.42;9.8;-0.64;-3.94;1.01;-12.91;-28.02;2.84;13.28;-9.7;2.29;2.66;7.78;-1.01;2.66
2.42;10.71;7.05;3.39;-6.41;-14.92;-23.99;-6.41;15.66;-9.34;6.13;-4.67;3.66;0.82;-0.82
2.43;14.01;11.54;3.94;-2.66;-15.84;-20.42;1.37;6.41;-8.33;6.32;-2.84;4.12;-1.01;-3.57
2.43;12.36;11.26;5.77;1.28;-6.77;-19.87;0.82;12.73;-13.73;8.97;-8.42;4.67;-5.58;-4.85
2.44;5.58;5.95;-5.04;1.56;-4.12;-28.29;3.94;0.82;-14.92;7.05;-12.73;3.02;-10.53;-1.92
2.44;11.81;4.85;-6.5;0.37;7.6;-24.44;-1.74;11.81;-13.46;-0.09;-13.09;1.56;-8.7;-4.76
2.45;4.94;3.02;2.11;-0.46;1.19;-18.77;-4.49;11.17;-14.19;-1.19;-11.08;4.67;-2.66;-1.74
2.45;5.86;11.81;-5.04;4.67;7.42;-19.68;-5.58;-0.09;-15.01;-3.57;-11.81;2.11;-6.13;-3.85
2.46;13.28;1.92;-0.92;1.56;1.28;-17.12;-1.1;7.23;-11.99;-3.94;0.09;-2.66;-2.66;-1.37
2.46;5.4;3.11;0.64;5.58;1.1;-11.54;0.18;9.61;-18.95;-4.12;6.32;-8.33;-3.75;-3.39
2.47;6.87;11.99;0.46;0.82;-2.84;-11.26;2.66;10.8;-16.3;-8.88;1.37;-4.85;1.28;-6.68
2.47;5.4;9.16;-1.74;-3.75;-1.37;-5.31;5.58;11.26;-16.39;-11.99;-4.12;-8.7;-4.85;10.89
2.48;-0.09;10.44;-1.01;5.68;2.29;-10.71;0.92;6.5;-16.2;-10.62;1.65;-10.53;0.82;-3.75
2.48;-0.37;4.21;-7.05;2.01;7.51;-8.88;-6.68;3.66;-13.37;-8.7;-1.01;-15.47;-7.42;-3.3
2.49;-1.37;1.92;-6.32;6.5;3.94;-4.12;-0.37;6.87;-10.16;-8.06;6.41;-9.25;-6.68;-3.75
2.49;-0.09;5.04;0.37;5.22;3.57;-10.62;3.3;7.78;-8.51;-8.7;-5.22;-16.48;4.76;-0.55
2.5;-0.09;5.77;1.37;1.92;3.48;-10.62;1.19;3.94;-4.12;-15.93;-2.66;-24.26;-4.94;-3.02
2.5;1.74;5.4;-7.14;-7.6;1.28;-8.51;3.3;0.55;-11.26;-11.08;0.46;-33.51;-6.23;3.3
2.51;-2.47;8.79;0.18;3.02;8.42;-11.26;-0.09;8.33;-3.2;-4.76;-5.13;-27.01;-10.53;-2.29
2.51;-4.3;12.91;-6.68;2.66;7.97;-2.56;-4.67;3.02;-8.33;-6.59;-10.89;-21.24;-11.44;-0.09
2.52;-10.16;4.67;-8.15;0.46;1.83;-4.49;-1.56;-3.75;-8.97;-4.49;-11.26;-18.77;-6.68;1.56
2.52;-4.67;10.99;-1.28;-1.65;-0.09;-10.71;-1.65;3.02;-4.58;-5.4;-6.13;-27.01;-13.82;-8.88
2.53;6.32;5.04;-0.09;3.57;1.19;-12.73;0.82;-4.39;-3.48;-10.89;0.37;-20.32;-3.2;-3.85
2.53;-5.22;7.78;-0.09;3.57;8.51;-5.77;6.32;-7.42;-1.01;0.27;3.57;-12.73;-0.09;-3.94
2.54;-9.43;6.68;-0.09;3.57;6.96;-8.61;4.3;-2.75;2.11;-6.68;-1.01;-17.3;-1.74;-0.09
2.54;-7.87;11.08;-0.09;3.57;4.94;-11.63;-3.75;-6.87;-6.41;-3.39;0.27;-4.49;-8.7;7.97
2.55;-8.61;10.89;-0.09;3.57;3.85;-14.74;6.5;-7.97;-5.22;-3.2;-3.02;4.85;-10.25;-0.82
2.55;-15.11;6.32;-0.09;3.57;-1.65;-13.55;-0.18;-12.73;-3.39;-8.15;-8.33;-0.46;-3.2;-6.41
2.56;-11.81;1.1;-0.09;3.57;0.46;-8.7;1.28;-10.62;-8.7;-9.61;1.65;-3.85;-7.32;-3.2
2.56;-11.26;11.63;-0.09;3.57;-5.22;-6.13;-10.16;5.04;-2.66;-6.5;2.75;-5.77;-6.96;0.27
2.57;-7.23;5.4;-0.09;3.57;-3.02;-7.51;-8.15;-3.39;-0.27;-2.47;-1.74;-0.64;-8.97;-3.3
2.57;-3.57;6.32;-0.09;3.57;-4.85;-3.57;-16.02;3.48;-3.85;-0.73;-11.81;3.94;-2.38;-0.09
2.58;-6.68;8.24;-0.09;3.57;-5.04;-6.68;-10.89;-0.27;-6.77;-0.09;-5.95;-4.67;-3.75;-9.61
2.58;-1.56;3.11;-0.09;3.57;6.5;-6.23;-13.46;1.74;-11.44;5.68;-5.04;-2.66;-3.02;-5.95
2.59;2.01;7.51;-0.09;3.57;-6.59;-5.22;-8.06;-1.46;-16.2;-0.46;-6.68;4.12;-1.1;-1.92
2.59;-0.09;9.61;-0.09;3.57;-7.05;-5.86;-9.34;-0.27;-8.61;-2.84;-3.57;1.92;-1.01;-2.29
2.6;-0.82;9.61;-2.84;-0.64;7.05;-3.57;-1.92;10.89;-11.26;-10.53;-17.03;-1.28;3.66;-3.94
2.6;4.67;8.88;-1.92;3.75;-4.94;-14.01;2.84;13.46;-14.37;-17.49;-11.9;-0.27;-2.29;1.56
2.61;6.13;-1.19;-10.16;8.33;-1.74;-16.11;5.04;-0.55;-18.95;-9.98;-14.28;4.3;0.82;-0.46
2.61;4.12;3.94;-11.26;1.74;-1.37;-5.22;-1.37;5.68;-11.08;-4.76;-10.16;7.87;-5.22;-6.68
2.62;4.03;3.94;-2.11;3.2;3.85;-3.39;3.3;4.49;-5.68;-6.77;-6.04;3.57;0.27;-3.94
2.62;7.78;3.02;-2.38;3.39;-3.57;-15.84;4.03;9.7;-5.4;-6.13;-8.51;0.55;0.64;-2.75
2.63;-6.5;-1.74;-5.04;6.04;-4.03;-1.19;5.68;13.64;-5.22;-4.03;-5.4;1.19;-6.77;-0.27
2.63;0.18;5.49;-9.98;4.85;3.75;-3.02;6.5;13.55;-8.79;-1.74;-6.87;8.7;-1.37;-0.09
2.64;-3.39;5.04;-6.5;-0.09;4.3;-5.58;3.02;11.63;-10.16;1.83;-12.18;1.37;-7.69;-0.82
2.64;-1.01;10.35;0.82;7.23;1.01;-8.61;2.2;6.13;-9.8;-0.37;-12.36;6.68;-7.87;-2.11
2.65;-0.09;7.14;-2.66;5.58;1.56;-7.69;-2.84;1.01;-15.75;0.27;-11.99;5.13;-8.42;5.31
2.65;5.31;1.92;2.75;5.58;-0.64;-4.3;-5.58;0.73;-8.97;-0.18;-16.66;1.19;-8.88;-3.2
2.66;9.25;5.22;3.11;1.92;-6.04;-0.73;-3.2;-4.49;-11.63;3.39;-9.61;1.92;-0.09;0.92
2.66;5.58;-0.64;5.58;-0.37;1.74;0.64;-6.32;-4.49;-1.92;1.19;-10.16;-1.1;-1.01;-2.47
2.67;-0.55;3.85;3.02;-0.09;1.56;-8.7;-8.7;-4.49;-14.19;-0.82;-10.53;-19.59;-4.58;3.39
2.67;-4.85;-3.94;0.18;7.32;-5.04;-3.75;-1.1;-4.49;-7.69;-1.19;-14.56;-8.51;-0.92;0.27
2.68;-5.22;-12.36;-3.57;5.4;-1.19;-3.11;-3.57;-4.49;-5.4;-7.14;-13.18;1.28;-7.42;-4.12
2.68;6.32;-9.61;-3.57;7.14;3.2;-0.82;7.05;-4.49;-2.01;-6.77;-6.5;-2.47;-7.6;-6.32
2.69;-0.27;-6.41;1.92;7.78;1.28;-4.85;-0.46;-4.49;-8.97;-5.4;-3.75;-1.56;-4.49;-3.85
2.69;3.11;-13.28;-3.48;3.94;1.56;-1.83;1.01;-4.49;-9.61;-2.66;-5.22;0.46;-5.58;-1.37
2.7;0.73;-8.61;-5.4;-0.09;-4.49;2.47;9.43;-4.49;-21.15;-12.18;3.39;1.19;-2.01;-9.8
2.7;9.25;-15.01;-2.29;-2.47;3.75;-2.84;10.71;-4.49;-10.71;-7.78;4.49;0.46;-11.35;-1.28
2.71;3.66;-12.27;-4.94;-1.37;2.84;-3.02;10.44;-4.49;-18.77;-14.19;-1.01;-4.94;-13.46;-8.88
2.71;4.85;-13.55;-4.85;8.24;-2.29;1.92;3.94;-4.49;-27.01;-17.67;13.28;-9.43;-13.28;-8.15
2.72;2.11;-4.3;8.97;-1.01;3.2;-1.92;-1.56;-4.49;-18.77;-14.01;5.58;-1.37;-4.21;-4.21
2.72;8.33;1.83;-5.95;6.77;5.31;-8.51;-5.95;-4.49;-15.84;-8.24;8.33;-5.22;-4.85;-5.49
2.73;4.67;6.41;5.04;6.77;-2.2;-3.11;-1.56;5.22;-21.7;-5.04;-1.92;4.12;-4.21;-3.75
2.73;6.13;11.44;1.92;6.77;-5.22;3.3;-1.74;4.67;-25.91;-8.7;-1.37;-3.39;-8.88;5.13
2.74;-0.27;-0.46;-5.04;6.77;-3.75;-5.95;-9.16;7.6;-22.8;-3.75;-7.6;2.75;-8.33;-2.66
2.74;5.22;9.61;-0.09;6.77;-2.66;-8.61;-0.09;-0.46;-23.9;-4.12;-4.94;-3.11;-5.77;2.84
2.75;4.49;13.82;3.75;6.77;-11.9;-6.68;-3.39;5.4;-17.94;-9.61;-1.37;-20.42;-7.78;-6.87
2.75;3.94;15.56;-3.57;6.77;-10.44;-8.42;-1.92;4.49;-16.85;-0.09;3.02;-19.87;-7.14;-5.22
2.76;4.67;8.24;-3.75;6.77;1.56;-1.28;-7.05;-2.29;-13.18;-6.5;4.67;-11.54;-3.94;-6.5
2.76;7.51;9.34;2.11;6.77;0.82;-8.33;-5.4;-11.99;-4.21;-1.01;3.11;-13.46;-7.97;-2.47
2.77;2.29;3.94;-1.37;6.77;4.67;-8.51;-2.29;-4.03;1.19;0.09;-0.37;-4.85;-5.22;-9.25
2.77;-2.84;2.84;1.56;6.77;-4.21;-6.41;-5.49;-15.47;-4.49;3.94;1.92;-6.96;-3.2;-5.22
2.78;-5.58;0.82;-1.28;6.77;-4.12;-3.94;-6.5;-7.05;-2.47;5.22;-10.71;-6.13;-6.13;-2.75
2.78;-4.49;4.12;0.27;6.77;-6.32;1.92;-6.87;-14.01;-11.81;2.38;-1.74;-1.19;-9.8;-1.28
2.79;-3.2;-3.39;10.89;6.77;-2.84;-1.74;-0.09;-4.67;-13.92;4.12;0.09;-2.11;-3.02;-3.94
2.79;-2.84;1.28;10.89;-0.82;-4.94;6.5;-3.75;2.47;-4.58;4.03;-8.33;-2.75;4.94;-4.67
2.8;-3.2;2.47;10.89;-5.77;-5.04;-0.64;3.39;0.55;-17.49;2.29;-0.82;2.11;-1.01;-3.48
2.8;-6.87;1.83;10.89;0.64;-3.2;-3.02;4.49;3.57;-6.13;0.55;-5.95;-1.19;-2.29;0.64
2.81;-2.11;4.85;10.89;6.5;-6.5;-9.7;-0.09;5.04;-17.94;-3.48;-7.23;-2.66;-6.59;-6.13
2.81;-0.82;-4.12;10.89;1.37;-2.84;-2.75;1.92;9.06;-10.8;-4.3;2.38;3.2;-6.13;-4.3
2.82;-0.55;5.58;10.89;7.05;-5.95;-1.92;3.66;9.25;-12.54;-1.1;1.37;-0.09;-2.11;-8.15
2.82;-0.64;4.67;10.89;2.66;-0.64;-8.7;5.22;8.51;-15.66;-3.75;1.19;-2.75;-10.71;-5.95
2.83;1.74;3.75;10.89;2.11;-7.23;-6.5;-5.77;0.64;-21.97;-0.09;4.67;7.97;-9.61;-5.22
2.83;-2.38;-4.21;10.89;-4.12;0.46;-7.42;-3.02;4.94;-22.98;-0.92;15.29;0.46;-5.95;-9.06
2.84;-7.6;-0.09;10.89;3.39;1.28;-3.57;-5.22;4.85;-16.66;1.01;16.75;-4.67;-6.13;-6.5
2.84;-5.4;-1.74;10.89;0.82;-0.82;5.22;-3.94;0.64;-15.84;1.19;14.47;-11.81;-8.15;-8.51
2.85;-4.03;0.46;10.89;-2.66;-4.67;-0.92;-14.1;-4.3;-17.76;1.56;20.97;-15.11;-6.41;-9.98
2.85;-2.29;-4.76;10.89;2.11;-2.29;-6.87;-6.04;-1.56;-16.94;4.58;13.28;-8.7;-1.37;-4.67
2.86;-2.29;-0.27;1.65;-1.01;2.11;-5.77;-1.37;-8.7;-23.9;-2.47;3.3;-12.54;1.56;1.74
2.86;-2.29;-4.12;5.58;-0.46;-1.28;-1.28;0.46;3.39;-23.25;-8.7;0.46;-18.4;5.22;0.46
2.87;-2.29;-8.51;-0.82;-0.09;-1.28;-1.28;-0.09;2.38;-21.06;-8.51;1.37;-18.22;0.64;-0.64
2.87;-2.29;-1.56;0.46;2.01;-2.47;-5.77;2.47;-0.82;-17.67;-15.47;-3.75;-4.67;-3.75;-6.87
2.88;-2.29;-1.01;0.27;2.11;-3.3;2.56;1.46;-6.13;-12.54;-3.57;-10.07;-5.31;-5.77;-3.48
2.88;-2.29;-8.51;-7.32;0.18;-2.84;-5.22;0.73;-14.01;-21.88;-3.94;-5.22;-8.15;-8.06;-1.01
2.89;-2.29;-0.92;2.38;4.94;-1.65;-14.01;2.29;-6.68;-15.29;-0.09;1.37;-8.33;-9.8;-4.58
2.89;-2.29;-11.17;6.41;-1.37;-8.88;-9.98;-3.02;-3.02;-22.61;-0.09;-2.84;-11.26;-7.05;-5.77
2.9;-2.29;2.11;-5.4;0.27;-1.01;-11.35;-8.7;4.85;-12.91;1.19;0.27;-6.04;-6.32;-6.68
2.9;-2.29;3.02;0.82;3.39;0.27;-8.15;-5.22;1.37;-8.88;3.39;-1.65;-8.33;-12.36;-0.09
2.91;-2.29;7.05;-2.47;5.31;3.02;-3.2;-0.64;0.27;-13.82;1.01;-3.75;-12.54;-8.06;-5.95
2.91;-2.29;5.58;-0.46;6.77;-1.1;-8.15;-4.76;1.28;-9.61;-3.02;-3.94;-9.06;-2.38;-7.69
2.92;-2.29;6.77;7.42;6.04;3.02;-0.09;-1.92;2.66;-15.93;-1.28;-4.94;-9.61;-8.51;-12.36
2.92;-0.64;10.16;2.38;2.29;1.19;-0.09;-1.74;5.4;-7.23;0.64;-1.01;-9.52;-9.16;-10.89
2.93;-0.82;15.66;1.92;4.85;-1.28;-0.09;-1.74;6.68;-14.83;-6.68;-6.32;-3.48;-6.13;-1.74
2.93;-2.29;10.16;-3.48;1.65;-1.92;-0.09;3.02;12.18;-6.87;-8.51;-8.88;-5.58;-3.11;-0.09
2.94;2.93;15.11;-0.82;7.05;-2.66;-0.09;7.97;5.49;-11.81;-1.01;0.18;-9.25;-5.4;-3.94
2.94;1.37;-2.75;-3.02;-6.87;0.18;-0.09;3.57;9.25;1.92;-5.13;-3.94;-5.04;10.71;-3.57
2.95;11.63;3.02;-2.75;4.49;-0.09;-0.09;3.39;6.59;-5.77;-1.01;-5.04;-3.02;-4.85;-8.51
2.95;7.23;4.49;-0.46;10.44;-4.12;-0.09;1.74;10.71;-4.85;4.58;4.39;-1.56;-12.82;-7.78
2.96;2.56;0.82;-3.02;0.64;-4.67;-0.09;-4.12;5.95;-8.15;-1.01;9.25;-0.18;-8.15;-3.75
2.96;7.97;0.64;-3.57;1.56;-0.09;-0.09;-6.13;6.77;-4.21;12.36;0.82;8.7;-13.37;-0.09
2.97;1.37;4.67;-5.22;10.35;3.2;-0.09;-7.14;12.18;-6.5;4.21;-0.18;0.46;-10.53;-2.84
2.97;-3.48;2.75;0.27;5.31;-1.74;-0.09;-13.46;-3.02;-2.47;0.27;-1.56;9.8;-8.51;-1.74
2.98;6.5;5.04;-2.38;12.91;-0.64;-0.09;-9.06;9.16;-6.68;-3.94;1.19;2.11;-8.15;-5.4
2.98;14.37;-3.02;-1.19;2.75;1.01;-0.09;-5.77;11.35;3.57;-0.55;1.19;1.83;-8.15;-12.73
2.99;10.53;-0.09;-1.19;2.75;6.41;-4.3;-4.85;3.11;-1.74;-2.29;5.13;1.56;0.09;-10.16
2.99;2.56;-1.83;-1.19;2.75;-0.09;-0.82;0.82;5.68;-6.13;0.55;-8.97;2.29;-2.2;-6.32
3;-3.57;-6.77;-1.19;2.75;-4.12;-6.5;0.27;3.3;-11.08;-0.18;-5.31;4.49;-6.5;-4.67
3;-0.82;-2.75;-1.19;2.75;-8.7;-0.73;1.37;0.46;-11.26;0.92;-8.7;7.69;-12.63;-9.25
3.01;3.48;-2.84;-1.19;2.75;-4.21;-4.3;2.84;2.29;-3.75;-3.48;-12.54;-0.55;-12.36;-2.56
3.01;4.49;-3.2;-1.19;2.75;4.49;-2.66;6.5;7.87;-3.66;-1.65;-5.58;-3.75;-3.94;-1.37
3.02;9.8;-3.2;-1.19;2.75;0.64;-8.33;5.77;-0.09;-5.68;3.39;-12.36;-0.82;-5.58;-6.32
3.02;2.01;-3.75;-1.19;2.75;-3.02;-2.38;2.93;5.95;-6.68;-1.28;0.27;2.01;-3.75;-7.05
3.03;1.19;4.12;-1.19;2.75;2.66;0.73;7.23;-0.09;-4.58;10.35;-6.5;0.27;-6.68;-3.2
3.03;-2.84;9.25;-1.19;2.75;1.01;-3.75;-2.38;0.64;-17.76;0.46;-6.5;4.76;-5.4;0.18
3.04;-1.01;3.48;-1.19;2.75;0.55;2.47;-8.7;-0.27;-7.23;0.46;-2.29;3.75;-4.67;0.64
3.04;-1.74;5.31;-1.19;2.75;-0.37;1.83;-9.8;-1.28;-11.44;-6.23;-7.23;7.97;-7.14;-4.03
3.05;0.18;9.61;-1.19;2.75;-5.95;-0.09;-7.42;-3.75;-9.61;-4.67;-7.6;2.11;-7.42;-8.15
3.05;0.18;9.61;-1.19;7.23;0.64;-0.64;-0.82;-4.21;-8.15;-0.27;-6.87;2.66;-1.19;-6.87
3.06;0.18;12.63;-1.19;0.27;-4.67;-0.37;0.27;3.11;-13.92;-5.49;-10.16;-1.19;-5.31;-4.67
3.06;0.18;11.81;-1.19;-0.73;-1.28;-3.57;0.64;-0.09;-16.39;1.37;-9.52;1.65;-7.42;0.73
3.07;0.18;16.66;-1.19;1.19;-3.94;0.18;-4.85;7.14;-11.26;-6.13;-6.87;-2.56;-0.09;-1.74
3.07;0.18;17.12;-1.19;1.65;-5.58;-2.75;0.64;6.32;-9.06;-9.7;-3.57;-3.39;-4.12;-12.27
3.08;0.18;16.02;-1.19;3.75;-2.29;0.46;1.19;1.92;-11.35;-4.3;-3.02;-3.75;-6.32;-7.6
3.08;0.18;16.2;-1.19;-2.29;-5.58;-3.2;0.82;9.7;-11.9;-7.97;-0.09;-12.36;-7.97;-6.13
3.09;0.18;14.1;-1.19;1.28;0.64;-4.49;-2.84;2.29;-10.71;-12.36;-3.2;-8.15;-7.23;0.27
3.09;0.18;19.32;-1.19;4.03;6.13;-4.85;-7.42;10.16;-9.43;-4.3;-6.23;-10.53;-4.21;-1.74
3.1;0.18;11.08;-1.19;7.97;3.39;-4.85;4.12;9.43;-12.91;-11.44;-2.56;-7.05;-4.39;-3.75
3.1;0.18;7.05;-1.19;8.24;5.4;-2.56;-1.1;7.78;-9.8;0.46;-4.94;-11.35;-4.85;-4.3
3.11;0.18;5.31;-1.19;2.84;-7.51;-6.5;0.09;3.94;-7.97;-4.12;-5.77;-1.01;-10.99;0.46
3.11;0.18;4.39;-1.19;3.02;3.75;-5.95;4.3;4.67;-4.12;-11.44;0.82;-3.85;-10.35;-9.06
3.12;7.51;7.97;2.29;5.95;-7.97;-3.39;4.3;4.67;-13.82;-10.71;-6.5;-6.5;-6.41;-5.22
3.12;0.64;6.23;-4.12;3.57;-2.38;-4.85;4.3;4.67;-15.2;-13.46;-3.48;-10.89;-10.35;4.21
3.13;1.56;9.43;-2.2;5.49;-2.66;-2.11;4.3;4.67;-15.66;-6.87;-10.71;-12.91;-4.12;-6.77
3.13;5.22;8.88;-2.66;7.05;0.46;-2.75;4.3;4.67;-16.75;-6.77;0.18;-9.16;-4.49;0.27
3.14;1.56;6.68;0.46;6.77;-3.02;-9.8;4.3;4.67;-11.63;-7.05;-9.43;-4.3;-5.4;-3.85
3.14;4.67;0.55;-6.32;-0.64;1.56;-8.7;4.3;4.67;-12.54;-14.28;-2.66;-6.5;-9.98;-2.01
3.15;-1.74;-0.55;-9.7;-4.3;-2.47;-4.67;4.3;4.67;-10.35;-21.88;-8.06;-1.37;-6.96;-7.6
3.15;4.49;-2.47;-1.74;-2.47;0.46;-1.19;4.3;4.67;-13.64;-11.26;-5.77;5.58;-5.58;-10.53
3.16;0.92;-3.85;-4.12;1.74;11.99;-5.49;4.3;4.67;-13.46;-7.78;-7.87;0.27;-12.82;-6.87
3.16;1.01;-1.74;3.11;-0.09;-0.46;-0.09;4.3;4.67;-15.47;-9.8;-2.01;4.58;-9.61;-6.5
3.17;6.5;-8.88;0.64;-0.09;6.04;-1.01;4.3;4.67;-8.15;-3.39;-1.37;1.37;-11.54;-9.06
3.17;8.7;4.12;-8.51;1.65;0.82;3.2;4.3;4.67;-0.27;-4.03;-5.04;-2.38;-5.95;-12.27
3.18;4.12;-4.21;-3.02;4.49;2.47;-0.92;4.3;4.67;-13.46;-1.74;-3.2;-2.47;-1.74;-5.4
3.18;3.57;-0.09;-2.2;4.49;-0.18;0.92;-6.32;2.11;-10.53;-0.18;-5.22;3.2;-6.59;-8.15
3.19;2.84;0.27;-11.63;4.49;-9.43;3.94;-8.33;-0.92;-4.3;-0.09;-5.22;2.29;-1.92;1.92
3.19;6.96;-0.82;3.02;4.49;1.56;-5.4;2.84;-2.84;-15.84;-7.6;-5.22;4.49;2.11;-2.01
3.2;-3.39;-2.84;-2.29;4.49;0.82;-2.11;-4.21;-3.39;-9.8;2.11;-5.22;8.97;-9.8;-4.85
3.2;-3.75;-2.84;-1.37;4.49;-3.75;-0.27;-7.42;-6.5;-0.09;-4.94;-5.22;6.68;-10.89;-9.89
3.21;5.77;-7.78;0.82;4.49;-0.73;-5.22;-0.37;-6.77;0.82;-2.11;-5.22;6.04;-3.02;-2.01
3.21;-6.68;1.28;0.92;4.49;1.19;-6.41;-4.12;-4.58;-3.48;-0.82;-5.22;5.95;-4.58;-7.6
3.22;-4.3;-7.97;-4.49;4.49;-1.37;-0.55;-2.11;3.57;-5.58;-0.09;-5.22;8.24;-3.57;-5.22
3.22;-4.3;-4.39;-9.61;4.49;1.56;0.37;0.64;-7.42;1.74;3.39;-5.22;7.14;-6.96;-6.32
3.23;-2.47;5.22;-4.76;4.49;-0.55;-3.39;-0.27;-0.64;-3.39;-0.27;-5.22;-2.75;-5.68;-3.11
3.23;-0.92;-4.58;-0.09;4.49;-0.09;-6.68;-5.4;-7.05;1.92;-1.56;-5.22;2.11;-2.47;-5.13
3.24;-6.13;-4.12;2.2;4.49;-9.61;-2.29;-12.54;-5.13;6.59;-1.01;-5.22;-0.09;-2.75;-4.76
3.24;4.12;-2.66;-0.27;4.49;-4.3;-1.65;-13.64;0.64;5.04;2.75;-5.22;-2.01;-5.58;-3.2
3.25;4.12;-0.46;-0.27;-0.64;-1.74;-3.75;-13.64;-10.89;8.15;-1.19;-5.22;-0.09;2.11;-5.95
3.25;4.12;-2.01;-0.27;2.29;-3.39;-8.06;-13.64;-5.22;-3.75;-3.02;-2.01;-7.05;-2.29;-1.37
3.26;4.12;-1.92;-0.27;1.28;-5.68;-8.7;-13.64;-3.48;0.46;-3.02;-3.57;-11.08;-5.04;-2.29
3.26;4.12;-0.09;-0.27;1.92;-4.67;-4.58;-13.64;-1.65;-5.22;4.3;-2.84;-11.99;-3.94;-0.09
3.27;4.12;-4.3;-0.27;-0.82;-5.77;-8.61;-13.64;5.4;0.92;-0.73;-6.68;-12.54;-0.09;-11.08
3.27;4.12;-2.47;-0.27;1.74;1.92;-0.82;-13.64;8.24;-1.01;3.75;-4.85;-1.92;-4.94;-1.92
3.28;4.12;-2.75;-0.27;-3.57;-3.02;-6.13;-13.64;8.33;-4.21;0.46;8.24;-7.05;-6.13;-3.11
3.28;4.12;-2.29;-0.27;-1.37;-5.04;-10.53;-13.64;7.78;-9.7;-1.92;-1.74;-6.04;-3.48;-3.2
3.29;4.12;0.27;-0.27;-2.75;-4.94;-15.11;-13.64;11.9;-10.8;-0.92;-0.37;-2.2;-2.56;-5.95
3.29;4.12;-0.09;-0.27;11.63;-2.11;-7.23;-13.64;5.04;-6.13;-3.48;6.68;-5.22;-7.23;-5.95
3.3;4.12;-6.68;-0.27;3.48;0.82;-4.12;-13.64;6.32;-11.63;3.3;-0.37;-1.92;-6.5;-2.56
3.3;4.12;-7.69;-0.27;5.31;-8.15;-6.13;-13.64;1.37;-2.66;5.77;-1.92;-5.49;-7.14;-7.78
3.31;4.12;-3.75;-0.27;8.7;-5.77;-1.56;-13.64;-3.94;-2.56;-0.27;-9.98;-9.8;-0.09;0.27
3.31;2.75;-9.89;-0.27;-0.09;-6.68;-1.56;0.55;6.23;-3.75;-1.01;-4.12;-5.95;-5.95;1.19
3.32;6.32;-1.01;-0.27;3.39;-2.01;-1.56;-4.58;3.39;-11.26;-0.64;-8.06;-7.42;-5.58;8.51
3.32;2.2;-4.3;-0.27;10.89;0.09;-1.56;0.18;7.23;-9.61;4.12;-8.51;-10.07;1.01;4.12
3.33;1.28;-0.09;-0.27;2.84;-0.82;-1.56;2.11;7.97;-19.13;-1.01;-6.41;-4.3;-2.29;-2.84
3.33;-2.56;3.02;-0.27;-1.65;-5.22;-1.56;6.5;9.34;-7.05;-0.09;-8.97;-3.2;-2.2;-2.29
3.34;0.18;-2.29;-0.27;-1.74;5.95;-1.56;0.46;15.47;-13.46;0.37;-4.3;-0.82;-7.97;-3.3
3.34;-0.09;8.33;-0.27;-0.09;4.67;-1.56;7.05;10.35;-18.68;-4.3;-5.68;-6.77;-7.14;-3.02
3.35;0.46;3.11;-0.27;-0.64;-0.64;-1.56;1.56;9.89;-19.23;-6.87;-2.47;-5.22;-3.2;-5.58
3.35;-8.06;5.04;-0.27;-0.27;0.27;-1.56;4.49;12.54;-14.01;-3.2;-7.05;-1.01;-8.79;-6.5
3.36;-4.85;-3.11;-0.27;-0.09;-6.13;-1.56;-0.09;8.33;-14.37;-11.26;-1.56;-3.75;-2.75;-12.36
3.36;-6.68;0.46;-0.27;-0.09;2.66;-1.56;-1.56;3.94;-14.37;-8.51;-1.1;-2.66;-4.49;-6.13
3.37;-11.99;3.57;-0.27;-0.09;0.64;-1.56;-7.87;4.67;-8.88;-2.38;-3.57;-4.94;-2.29;-3.11
3.37;-10.89;1.01;-0.27;3.57;-2.38;-1.56;2.47;16.57;-6.77;-6.59;3.57;-0.09;-5.4;-6.87
3.38;-6.41;1.56;1.28;0.73;-2.47;3.11;-0.82;3.11;-11.81;-4.49;-3.48;-6.13;-0.64;-4.49
3.38;-12.91;-9.34;1.01;-2.75;2.29;-7.78;-3.85;-2.75;-15.29;-4.85;-0.64;0.92;1.01;-8.15
3.39;-10.99;0.82;-3.48;-1.92;-2.47;-1.37;-10.07;-6.32;-9.89;-9.43;-3.11;3.94;-2.11;-4.85
3.39;-1.74;-6.5;-5.22;-3.11;-6.68;-4.03;0.46;-7.23;-14.74;-3.02;-4.49;-0.27;-2.56;-1.01
3.4;-2.93;-3.02;-3.75;-1.19;-3.39;-5.22;-0.64;-1.92;-8.97;1.19;-1.19;3.75;-1.19;0.64
3.4;-8.88;-12.36;-3.66;1.19;-1.65;-12.54;0.18;0.55;-12.36;-9.8;-7.51;5.04;-3.57;-6.32
3.41;-6.5;-7.05;-5.4;1.19;-1.74;-5.95;6.32;-0.82;-10.71;1.19;-3.48;1.56;-5.58;-4.49
3.41;-13.28;-15.47;-0.64;-2.84;-0.09;-6.32;11.81;0.37;-8.88;-0.82;-7.87;0.27;-6.5;-5.13
3.42;-10.71;-1.74;-9.8;3.48;1.56;-6.41;4.3;-2.38;-9.61;-1.1;-6.04;-9.25;1.28;-3.39
3.42;-10.35;-2.75;-4.85;-0.64;3.39;-5.22;5.77;6.13;-9.06;0.55;-6.87;-2.84;-8.61;-0.82
3.43;-6.87;1.19;-4.85;-2.66;2.84;-1.46;-3.3;8.15;-5.13;-0.46;-9.43;-0.64;-2.47;-1.56
3.43;-2.66;2.66;0.18;3.02;-3.94;-7.78;-0.09;3.39;-10.71;-5.95;-10.35;5.13;-6.68;-5.95
3.44;1.56;-1.46;-0.46;1.28;0.37;-2.47;3.2;6.77;-6.68;6.13;-6.04;1.01;-6.68;-8.97
3.44;5.58;-1.46;-6.41;0.37;7.51;-5.95;1.19;6.87;-9.8;-2.11;-9.61;0.27;-3.39;-3.57
3.45;-3.85;-1.46;-3.75;-2.29;1.74;-6.68;-1.92;10.8;-16.75;-5.77;-6.5;-1.92;-2.11;-2.47
3.45;-3.11;-1.46;-3.66;3.11;-1.74;-2.38;-4.58;1.74;-15.11;-6.32;-5.04;-3.75;-4.67;3.2
3.46;-4.94;-1.46;-9.06;0.64;-2.84;-5.4;-1.92;8.33;-12.27;-7.51;-11.9;-6.32;-7.97;-3.94
3.46;-6.04;-1.46;-2.56;-5.4;-3.02;-6.13;3.94;7.6;-11.9;-14.19;-7.6;-11.44;-0.46;-3.75
3.47;-3.48;-1.46;-9.06;-2.11;-2.56;-5.77;1.56;0.64;-16.39;-12.54;-1.28;-5.68;-2.66;-3.2
3.47;-2.75;-1.46;-0.27;2.47;-7.97;-5.4;-5.22;9.7;-11.08;-12.91;-1.28;-8.7;-7.05;0.82
3.48;-0.09;-1.46;0.09;-3.2;-0.82;1.19;2.84;10.35;-9.98;-14.01;-7.42;-7.23;-2.56;-7.42
3.48;-6.68;-1.46;1.46;-2.47;10.89;-4.76;-4.03;7.78;-11.26;1.65;-5.77;9.89;-6.87;-11.35
3.49;-4.12;-1.46;1.65;1.92;-6.41;1.19;-0.73;8.88;-7.97;-2.29;-5.4;5.22;-6.5;-6.04
3.49;-5.68;-1.46;1.19;1.28;-7.78;-3.11;-4.21;7.14;-11.99;-7.05;-5.77;2.11;-6.68;-4.03
3.5;-6.68;-1.46;7.97;-1.56;-5.68;-5.13;-6.87;1.83;-10.44;-8.33;-4.58;0.46;-6.32;-2.66
3.5;0.82;-1.46;4.12;1.19;0.46;-9.25;-9.16;-1.74;-8.42;-1.92;2.11;-3.94;1.37;-5.4
3.51;0.46;14.56;4.12;1.19;0.46;-9.25;-9.98;-0.82;-14.56;-5.22;2.29;-1.92;-9.06;-0.09
3.51;2.11;11.44;4.12;1.19;0.46;-9.25;-14.37;1.28;-12.63;-8.88;0.46;10.16;-3.75;-0.92
3.52;-4.85;8.51;4.12;1.19;0.46;-9.25;-8.97;2.47;-15.84;-9.25;-5.4;1.37;-8.61;-6.13
3.52;-2.56;12.36;4.12;1.19;0.46;-9.25;-4.12;-4.67;-18.4;-3.02;-8.7;8.79;-9.06;-5.31
3.53;2.38;3.3;4.12;1.19;0.46;-9.25;2.47;-0.55;-16.94;-10.16;-8.33;4.58;-7.87;-2.75
3.53;-1.28;3.57;4.12;1.19;0.46;-9.25;8.15;-3.75;-13.46;-8.15;-12.54;-2.29;-3.94;-3.11
3.54;0.82;-0.82;4.12;1.19;0.46;-9.25;-1.19;3.02;-16.39;-7.23;-9.8;-2.84;-9.61;1.19
3.54;7.97;6.32;4.12;1.19;0.46;-9.25;-3.57;9.34;-12.82;-0.09;-3.57;-0.09;-6.68;-8.24
3.55;2.47;0.46;4.12;1.19;0.46;-9.25;-3.02;7.6;-9.61;2.47;-6.77;-1.19;-10.25;-3.85
3.55;0.09;1.83;4.12;1.19;0.46;-9.25;-8.61;4.12;-15.47;7.97;-16.39;-0.82;-9.25;0.82
3.56;6.5;1.56;4.12;1.19;0.46;-9.25;-3.57;1.1;-18.77;2.56;-18.22;-4.12;-2.47;3.02
3.56;8.51;1.56;4.12;1.19;0.46;-9.25;-3.2;-1.83;-17.85;3.75;-9.16;-12.73;-15.29;-5.77
3.57;8.7;2.29;4.12;1.19;0.46;-9.25;-9.06;-0.37;-13.18;1.56;-8.15;-11.99;-7.14;-3.39
3.57;12.91;6.41;4.12;-2.47;-0.46;-9.25;-12.18;-1.56;-9.61;-0.55;1.37;-14.19;-4.85;-3.75
3.58;10.89;4.12;4.12;-2.84;-3.75;-9.25;-6.96;-14.01;-5.58;-3.75;-7.14;-8.33;-1.74;-5.04
3.58;2.66;5.13;4.12;7.97;-0.46;-9.25;-10.71;-8.33;-3.2;-7.97;-3.85;-0.09;-3.75;-3.94
3.59;6.68;1.01;4.12;7.97;-5.4;-9.25;-8.15;-11.99;-12.36;-1.56;-5.68;-2.11;-1.01;-7.32
3.59;2.75;4.94;4.12;3.39;-6.32;-9.25;-5.58;-7.23;-8.24;-7.14;4.85;-1.28;-2.84;-4.67
3.6;-6.04;5.04;4.12;3.2;-6.87;-9.25;-6.13;-2.84;-4.49;-12.54;3.39;3.39;-6.77;-6.68
3.6;-4.12;1.19;4.12;-0.46;-6.5;-9.25;-1.01;1.19;1.01;-11.08;4.12;6.41;-6.68;-4.12
3.61;-2.84;8.97;4.12;3.11;-7.97;-9.25;-0.46;7.42;-0.09;-6.68;7.97;1.92;0.46;-2.2
3.61;-7.51;9.06;4.12;1.92;-0.09;-9.25;-5.77;-2.66;-2.75;-1.37;2.84;4.76;-3.3;-7.32
3.62;-6.68;8.51;4.12;1.19;0.92;-9.25;-6.23;1.19;-5.4;-1.37;7.23;3.75;-8.88;-8.7
3.62;0.18;2.56;4.12;5.31;-6.5;-9.25;-7.87;10.16;0.46;-9.25;8.33;4.85;-9.06;-11.44
3.63;3.02;1.65;4.12;0.64;-1.37;-9.25;-4.85;1.19;-6.23;-7.42;4.94;12.54;-6.68;-4.12
3.63;1.19;-2.84;4.12;7.05;-3.2;-9.25;-10.71;-5.31;-6.41;-5.22;8.33;10.16;-2.11;-8.33
3.64;-1.92;-1.92;0.46;2.56;-14.01;4.58;-11.99;-1.74;-5.4;-9.61;2.11;11.99;-6.59;-11.54
3.64;5.58;-8.33;0.37;3.02;-7.6;2.93;-8.97;6.59;-4.3;-5.04;5.58;12.27;-5.22;4.03
3.65;-6.5;-7.14;1.28;3.94;-3.94;0.37;-12.54;0.64;-10.53;5.95;-0.27;13.82;2.11;-3.11
3.65;-6.68;-5.49;-4.58;6.5;-9.06;-0.09;-3.2;6.32;-6.68;5.68;3.75;-1.74;-5.04;-0.27
3.66;-6.32;-7.32;3.48;-3.11;-10.99;-3.57;-1.01;16.02;-2.84;3.85;6.96;-1.1;1.92;-6.23
3.66;0.18;-11.54;7.51;-0.18;-5.77;-9.06;-3.11;11.99;-12.73;0.27;6.77;-14.1;-9.98;-5.77
3.67;4.67;-5.4;1.1;3.39;-5.13;-3.85;-1.92;10.53;-5.95;6.77;1.19;-18.77;-11.08;-3.02
3.67;-0.46;-1.1;-2.75;-4.67;-1.37;-5.95;-1.37;12.54;-11.44;5.77;0.46;-18.04;-5.77;-2.84
3.68;1.56;4.49;-3.2;-2.29;2.38;-3.94;-7.23;4.85;-9.52;8.15;1.92;-12.54;-7.78;-2.47
3.68;2.93;0.92;-4.58;3.02;0.64;-4.76;-7.32;8.7;-7.05;-4.49;-5.04;-5.58;-7.97;-7.78
3.69;1.83;-0.09;-2.75;11.17;-2.38;0.73;-5.04;8.88;-3.94;1.56;-3.02;-23.9;-7.6;-7.6
3.69;2.11;4.85;1.01;6.77;-4.85;-4.85;3.39;3.3;0.46;-2.84;-11.26;-29.48;-8.51;-7.78
3.7;5.77;0.46;-0.46;1.01;1.92;-6.5;-8.7;-6.32;1.92;-4.67;-0.09;-36.71;1.74;-10.35
3.7;4.3;1.01;-0.37;2.01;-4.58;-3.75;-6.23;-6.41;-0.09;8.51;6.77;-30.49;-8.7;-12.54
3.71;3.75;4.67;4.76;4.94;0.27;-13.46;-2.47;-3.85;-2.47;-3.02;6.68;-25.45;2.47;-1.74
3.71;-0.82;13.73;-6.13;-5.22;-4.67;-7.05;-1.92;-7.78;-5.77;-0.09;10.35;-23.53;-5.4;-4.49
3.72;-3.2;6.5;-5.95;8.88;-1.19;-10.89;1.92;-9.61;-4.12;-4.3;2.84;-31.86;-3.39;-4.85
3.72;-3.39;3.3;-6.32;-2.66;1.56;-11.99;-0.18;-5.77;11.81;-0.46;-1.74;-35.98;-9.43;-5.4
3.73;-6.68;3.57;-2.66;1.46;-2.66;-9.8;8.51;-11.26;4.49;-9.25;-1.01;-29.11;-11.08;-4.85
3.73;-2.29;0.18;-3.57;1.74;-8.06;-4.3;6.04;-3.2;-3.94;1.65;-2.56;-24.44;-6.96;-6.13
3.74;-5.58;0.46;0.37;-5.22;-3.94;-6.59;5.58;-2.01;-6.23;-5.95;3.39;-17.4;-7.97;-0.55
3.74;-3.48;-2.11;-3.11;-1.01;-2.66;-8.42;5.77;3.02;-5.04;-3.11;-3.39;-14.37;-12.91;2.84
3.75;-2.29;8.15;-2.75;2.38;0.46;-7.42;10.07;4.49;-1.28;4.85;-5.04;-3.66;-7.87;-3.75
3.75;-0.64;2.66;-5.77;4.67;0.92;-3.75;0.27;-0.09;3.2;-3.2;0.55;-11.26;-9.25;-8.15
3.76;-9.34;3.85;-3.2;2.75;-6.68;-3.57;5.77;-0.09;1.01;-5.68;-0.46;-5.95;-13.82;-10.8
3.76;-0.82;-0.92;-0.09;3.2;-2.29;-6.13;17.85;-3.57;8.15;-8.7;7.14;-3.75;-12.73;-12.36
3.77;1.56;-3.2;-0.09;3.2;2.01;-0.27;5.22;-1.01;3.02;-0.09;3.02;-8.88;-3.57;-6.68
3.77;7.42;4.76;-0.09;3.2;-5.77;-0.09;7.42;-1.01;5.4;-2.84;2.29;-6.68;-6.32;-2.47
3.78;8.33;1.92;-0.09;3.2;-4.3;-5.77;4.58;-3.2;8.7;5.58;2.56;-0.09;-3.66;-1.92
3.78;12.36;-5.68;-0.09;3.2;0.27;-6.5;2.47;4.76;8.7;-0.18;-1.74;6.5;-2.29;-7.6
3.79;12.91;1.92;-0.09;3.2;-6.23;-8.51;2.29;2.01;3.57;2.66;-3.39;5.13;-6.87;-5.77
3.79;7.14;-4.76;-0.09;3.2;-1.37;-9.61;8.97;6.23;-7.14;5.77;-4.21;-1.56;-1.65;-8.51
3.8;9.98;-5.77;-0.09;3.2;0.46;-8.51;10.44;3.39;-5.49;-7.42;2.11;4.58;-7.6;-6.68
3.8;7.78;-3.57;-0.09;3.2;-3.75;-4.03;17.94;10.71;-10.53;-2.29;4.3;4.76;-10.35;-7.42
3.81;6.13;-0.09;-0.09;3.2;-3.75;-11.08;10.89;12.82;-22.8;-0.92;3.2;4.49;-7.6;-12.73
3.81;7.6;-5.04;-0.09;3.2;-3.11;-9.98;5.58;10.35;-19.13;-7.87;10.07;2.47;-9.43;-14.65
3.82;3.39;-3.48;-0.09;3.2;3.48;-3.39;8.97;5.95;-26.28;-11.26;4.12;-2.11;-11.81;-7.87
3.82;3.94;-1.92;-0.09;3.2;-3.94;-7.78;12.73;8.24;-24.26;-6.87;8.15;-0.09;-8.97;-5.04
3.83;0.37;3.85;-0.09;3.2;-4.67;-8.15;5.77;5.68;-21.24;-7.6;8.51;-1.1;-5.58;-14.56
3.83;4.94;10.89;-0.09;3.2;-4.12;-9.61;1.01;5.04;-25.91;-12.27;15.01;-4.94;-10.25;-6.68
3.84;1.01;14.74;-0.09;3.2;-1.01;-6.68;-8.88;4.12;-26.09;-10.71;8.61;-5.58;-7.87;-2.11
3.84;-13.09;16.94;-0.09;3.2;-0.64;-6.32;-13.37;9.43;-35.98;-6.23;4.49;-4.21;-6.68;-4.3
3.85;-14.28;9.8;-0.09;3.2;-3.75;-4.58;-4.67;3.57;-30.49;-8.42;2.84;10.89;-6.13;-12.54
3.85;-11.44;11.35;-0.09;3.2;-4.85;-6.13;7.87;2.66;-24.44;-8.79;10.71;3.48;-3.2;-6.68
3.86;-14.19;12.91;-0.09;3.2;-1.56;-7.05;-4.85;1.19;-24.26;-12.54;1.56;4.49;-11.44;-1.01
3.86;-11.81;5.58;-0.09;3.2;-10.99;-8.06;-0.82;3.57;-33.05;-15.93;5.95;-0.09;-9.25;-8.88
3.87;-15.47;15.2;-0.09;3.2;-2.47;-8.15;-1.01;4.85;-32.68;-6.68;0.55;8.15;-8.79;-12.45
3.87;-12.27;5.4;-0.09;3.2;3.2;-8.88;-5.58;6.87;-27.92;-14.1;3.2;4.49;-10.44;-6.23
3.88;-15.75;9.7;-0.09;3.2;3.02;-7.05;-10.16;8.97;-27.92;-13.82;-9.7;4.85;-11.63;-9.06
3.88;-9.25;4.03;-0.09;3.2;-1.37;3.39;-7.51;3.48;-33.42;-14.92;-8.06;-0.09;-13.28;-8.15
3.89;-13.64;12.91;-0.09;3.2;-2.29;-1.28;-10.89;-4.03;-23.35;-16.3;-2.47;-1.1;-6.68;-14.74
3.89;-13.73;15.66;-0.09;3.2;3.57;3.94;-14.92;-3.94;-24.54;-9.16;-2.29;3.94;-1.56;-4.76
3.9;-11.08;2.84;4.3;6.59;3.39;1.01;-9.25;-2.47;-25.73;-8.51;0.09;8.24;-11.99;-5.58
3.9;-6.87;10.89;0.27;-2.29;-6.5;1.01;-5.77;2.29;-21.61;-12.91;-4.67;13.37;1.19;-3.02
3.91;-6.68;2.01;-0.09;-2.38;-2.47;-3.39;-8.51;1.01;-22.98;-16.66;-0.82;3.57;-1.83;-5.22
3.91;-1.19;0.73;5.04;1.37;4.76;-10.71;-2.47;3.39;-24.26;-15.66;-2.66;7.23;-8.42;-5.58
3.92;-6.5;-5.4;4.12;-5.31;-8.42;-5.4;2.01;0.82;-15.11;-15.47;-5.4;9.98;-6.87;-6.87
3.92;-4.21;-1.74;-5.22;-4.12;-9.43;-10.07;0.18;-0.27;-17.3;-14.92;-2.84;5.4;-4.94;-6.32
3.93;-6.5;-5.68;-4.85;10.89;-1.01;-10.16;-1.92;0.82;-15.47;-14.1;-11.08;7.05;-10.16;-8.15
3.93;-0.55;-2.11;-6.5;5.04;-4.49;-9.61;1.74;0.09;-22.8;-14.01;-10.8;6.68;-6.13;-9.7
3.94;-1.19;0.46;-5.58;2.2;1.37;-4.67;-4.12;1.92;-14.19;-2.11;-7.05;9.61;-8.7;-11.44
3.94;-5.4;-5.58;-3.48;2.11;6.41;-5.4;-7.42;5.95;-7.05;-6.5;-7.14;12.73;-10.44;-3.2
3.95;3.75;-3.66;-3.75;-3.48;-0.09;-5.58;-6.23;-1.74;-12.36;-5.4;-6.32;7.87;-11.44;-11.99
3.95;-0.64;-6.5;-2.84;10.8;-7.05;-3.48;-0.46;0.64;0.09;-8.61;-9.61;4.49;-13;-6.32
3.96;-1.01;-0.09;3.39;2.66;-6.23;-6.87;-2.47;2.11;-0.82;-0.09;-9.8;10.71;-5.22;-7.23
3.96;-3.94;-6.5;-1.19;6.32;-7.78;0.46;1.56;2.29;-4.67;-0.82;-10.53;3.57;-4.58;-11.81
3.97;-2.11;-5.22;0.55;4.21;-1.19;-7.78;5.4;3.75;-3.2;-1.56;-10.8;-2.38;-3.75;-4.94
3.97;-11.99;-10.53;4.12;5.22;-2.29;-6.5;-5.95;6.41;-7.42;0.18;-9.7;-9.25;-7.97;-2.38
3.98;3.39;-8.15;0.64;0.27;-6.87;-6.59;-7.97;11.99;-0.27;5.58;-5.31;-5.49;-4.39;-7.42
3.98;-2.29;-2.84;-4.21;1.92;-4.85;1.92;-8.15;2.11;0.55;6.5;-4.12;-0.82;-7.23;-8.88
3.99;0.64;-5.68;-1.37;-1.37;-5.22;-9.06;-6.87;6.41;-6.77;2.47;-5.95;-2.38;-5.13;-0.27
3.99;0.82;-1.56;0.64;3.2;-12.73;-10.44;-8.42;6.23;-0.82;8.7;-3.3;-0.64;-6.13;0.92
4;2.66;0.37;-3.75;4.58;-8.15;-9.34;-5.22;6.13;0.18;3.39;-0.09;-6.87;-14.37;-6.04
4;0.55;-0.64;-2.47;2.47;-0.64;-8.33;-5.4;8.15;-5.31;1.92;-5.22;-11.81;-4.85;-3.94
4.01;0.82;0.92;-7.78;2.11;-4.67;-6.13;-12.18;4.67;-9.06;2.29;-4.12;-6.68;-9.25;-6.68
4.01;6.68;-0.82;-0.82;7.42;-1.92;-5.77;-2.38;0.46;-2.47;-2.66;3.39;-13.73;-13.82;-10.35
4.02;12.73;2.29;4.3;6.5;-0.09;-2.75;-2.2;5.04;-9.52;-2.56;0.64;-16.94;-4.85;-3.94
4.02;16.75;3.11;6.87;3.2;-4.58;-10.89;-0.82;9.06;-12.91;2.29;-3.57;-9.8;-6.68;-15.84
4.03;0.64;-0.09;6.87;3.2;4.39;-10.89;-0.09;7.6;-19.5;-5.95;-4.94;-13.09;-8.33;-11.08
4.03;5.95;5.13;6.87;3.2;0.46;-10.89;-5.58;4.85;-18.31;-1.74;7.97;-8.33;-3.57;0.46
4.04;8.51;-0.82;6.87;3.2;-2.11;-10.89;1.19;2.66;-17.12;-7.14;5.04;-12.54;-4.3;-0.27
4.04;2.66;-14.74;6.87;3.2;-5.77;-10.89;1.19;-1.74;-14.56;-5.77;3.3;-5.4;-4.58;-0.09
4.05;3.02;-8.15;6.87;3.2;-2.66;-10.89;-3.75;0.64;-13;-6.32;2.47;-9.98;-9.98;-11.44
4.05;9.7;-6.77;6.87;3.2;-1.65;-10.89;-1.83;0.27;-12.82;-7.51;-4.3;-9.7;-5.58;-6.32
4.06;5.04;-6.13;6.87;3.2;-4.21;-10.89;-7.42;5.4;-13.09;-5.68;-9.06;-7.14;-10.07;-7.6
4.06;3.85;-14.28;6.87;3.2;-1.56;-10.89;0.64;10.89;-12.54;-2.29;-7.51;-5.68;-6.41;-6.77
4.07;3.57;-10.53;6.87;3.2;0.82;-10.89;-10.89;0.64;-9.98;0.18;-15.29;-5.68;-8.61;-11.99
4.07;2.11;-2.38;6.87;3.2;-6.32;-10.89;-11.54;10.71;-10.35;-0.09;-6.32;-6.59;-2.11;-10.16
4.08;-2.29;-9.06;6.87;3.2;3.11;-10.89;-9.7;4.21;-17.3;3.94;-13.73;-2.84;-6.13;-5.31
4.08;-0.82;-3.75;6.87;3.2;-2.66;-10.89;-4.67;-4.21;-20.05;-11.26;-5.77;-0.09;-3.48;-6.87
4.09;2.38;-4.67;6.87;3.2;4.49;-10.89;-5.4;-3.85;-18.95;-5.95;-7.6;-5.4;-8.15;-4.67
4.09;2.38;-4.67;2.11;0.27;-2.47;-2.38;-9.98;1.19;-14.28;-2.66;-14.56;-8.51;-3.02;-4.67
4.1;2.38;-4.67;-2.29;-2.2;-7.14;-9.25;-10.89;-1.01;-11.35;-4.94;-14.47;0.18;-2.47;-3.75
4.1;2.38;-4.67;-3.39;7.97;-3.57;-15.47;-5.58;6.68;-15.47;-5.49;-9.98;-3.94;-6.87;-9.43
4.11;2.38;-4.67;0.46;-1.28;-3.75;-6.87;8.15;1.92;-19.87;-3.75;-9.06;-0.64;3.3;-0.09
4.11;2.38;-4.67;1.19;-6.13;-4.76;-7.97;8.7;2.84;-2.2;-2.29;-10.16;3.02;-9.43;-10.89
4.12;2.38;-4.67;1.46;5.4;-2.47;-12.18;9.43;0.64;-3.75;-9.8;-6.32;-3.66;-8.15;-6.32
4.12;2.38;-4.67;-1.92;2.11;-3.75;-15.11;9.8;-2.11;-10.53;-3.75;-4.85;2.01;-11.63;-8.51
4.13;2.38;-4.67;4.58;7.78;-3.75;-5.22;11.81;3.39;-6.23;-1.56;4.03;-0.37;-10.07;-7.42
4.13;2.38;-4.67;-1.01;4.3;2.01;-7.42;8.51;7.42;-1.92;3.57;1.56;0.09;-9.25;-9.8
4.14;2.38;-4.67;-0.09;3.2;-2.84;-5.04;2.01;7.23;-9.61;1.83;-5.31;2.75;-6.5;-16.57
4.14;2.38;-4.67;0.55;7.23;-8.15;-4.12;8.51;-0.09;-2.84;-0.82;-4.85;-11.44;-5.77;-2.47
4.15;2.38;-4.67;5.22;-3.02;-3.48;-5.77;-1.01;1.92;0.46;-2.75;0.46;-2.01;-12.18;-9.61
4.15;2.38;-4.67;2.47;1.92;-7.05;-2.11;2.84;-2.66;5.04;-6.32;2.38;-3.94;-9.61;-11.81
4.16;2.29;-4.67;2.47;1.92;-7.05;-5.22;1.92;6.87;-0.46;-2.47;-2.29;-3.94;0.82;-2.29
4.16;8.15;-4.67;2.47;1.92;-7.05;-0.82;-0.55;8.97;-6.41;-2.01;16.75;5.31;1.92;0.46
4.17;8.88;-4.67;2.47;1.92;-7.05;-6.68;-9.8;14.56;-16.66;-9.06;7.97;-4.3;0.18;-5.22
4.17;4.58;-4.67;2.47;1.92;-7.05;-4.67;-3.48;16.2;-8.97;-0.64;7.05;5.58;-6.5;-3.39
4.18;-0.09;-4.67;2.47;1.92;-7.05;-2.29;4.67;6.77;-8.97;-5.58;10.71;-4.85;-3.48;-9.8
4.18;-3.75;-4.67;2.47;1.92;-7.05;-3.39;8.88;7.78;-3.75;-4.3;7.14;1.01;-7.05;-2.29
4.19;4.21;-4.67;2.47;1.92;-7.05;-9.98;15.84;5.31;-16.94;0.64;6.32;-6.32;-11.08;-4.3
4.19;2.11;-4.67;2.47;1.92;-7.05;-5.04;6.77;14.37;-21.61;5.58;1.92;5.22;-8.7;-2.38
4.2;0.27;-4.67;2.47;1.92;-7.05;-6.68;6.77;5.86;-19.5;-4.3;0.27;-1.01;-9.8;-7.6
4.2;-1.74;-4.67;2.47;1.92;-7.05;-4.12;-1.92;3.2;-17.12;-4.21;-0.37;7.69;-12.54;-5.31
4.21;-0.46;-4.67;2.47;1.92;-7.05;-2.29;-1.74;2.56;-14.28;1.56;-4.94;5.22;-6.87;-1.1
4.21;-1.56;-4.67;2.47;1.92;-7.05;-5.68;-0.09;-2.56;-12.27;-0.55;-8.15;-0.46;-9.25;-13
4.22;-2.75;-4.67;2.47;1.92;-7.05;-5.04;9.61;6.96;-4.03;2.38;-3.57;2.2;-0.82;-5.77
4.22;-11.35;12.91;2.47;6.23;-1.56;-5.04;-3.66;-1.37;-11.26;-2.29;-6.04;-3.85;-3.11;-5.22
4.23;-1.28;18.31;2.47;-1.28;-15.66;-5.04;-4.67;4.76;-19.32;-2.29;-4.67;-3.02;-7.6;1.83
4.23;-13.18;8.61;2.47;-3.02;-11.26;-5.04;-2.29;3.48;-14.01;0.09;-8.33;6.5;-12.27;-10.71
4.24;-9.25;8.7;2.47;4.3;-8.51;-5.04;-1.74;0.46;-12.91;5.22;-11.99;-0.09;-7.05;-0.64
4.24;-6.87;11.99;2.47;1.65;-3.02;-5.04;4.76;8.15;-10.07;-12.73;-9.43;1.19;-9.16;-4.85
4.25;-2.47;7.14;2.47;4.12;-2.11;-5.04;7.23;0.64;-14.56;-5.04;-11.81;-0.82;-9.8;6.13
4.25;-7.78;0.64;2.47;4.58;-9.06;-5.04;6.87;4.3;-15.66;-12.36;-7.87;5.58;-6.59;-4.12
4.26;-6.68;0.46;2.47;0.18;-5.4;-5.04;8.51;-0.09;-13.28;-11.44;-15.93;0.82;-6.04;-1.56
4.26;-1.92;-1.74;2.47;-1.56;-0.18;-5.04;8.51;3.2;-18.95;-1.28;-10.35;7.42;-10.44;-1.19
4.27;-3.57;-2.01;2.47;1.28;-8.7;-5.04;3.3;-5.22;-9.43;-11.26;-6.23;3.94;-9.25;-3.66
4.27;-5.77;-5.22;2.47;3.94;6.13;-5.04;0.46;2.38;-11.08;-7.32;-2.29;-8.15;-13.09;-10.07
4.28;-0.09;-6.59;2.47;9.06;-7.97;-5.04;-2.56;-4.49;-11.08;-0.82;0.37;-6.13;-10.62;-3.75
4.28;3.2;-3.39;2.47;1.56;0.37;-5.04;4.49;-1.37;-7.87;-11.26;-1.56;-2.38;-7.78;-2.84
4.29;3.2;-7.14;2.47;1.56;-0.09;-3.75;12.73;-13.92;-8.42;-1.1;3.39;3.48;-7.97;-8.15
4.29;3.2;-3.75;2.47;1.56;-6.13;-4.67;6.13;-11.08;-11.44;-7.51;1.56;-3.75;-6.77;4.76
4.3;3.2;-6.96;2.47;1.56;-8.33;-6.68;-6.77;-9.98;-11.81;-6.04;5.22;-1.74;-3.75;-3.94
4.3;3.2;-7.6;2.47;1.56;-6.68;-11.26;-1.74;-6.68;-12.54;-5.13;11.81;6.68;-9.25;2.47
4.31;3.2;-7.14;2.47;1.56;-7.6;-7.6;-2.38;-11.81;-8.15;-4.21;12.54;-2.01;-9.06;-2.29
4.31;3.2;-8.06;2.47;1.56;3.11;-7.51;-3.94;-5.22;-15.75;-3.57;11.63;-1.19;-8.42;-1.74
4.32;3.2;-6.13;2.47;1.56;-7.51;-6.32;-0.55;-8.15;-13.46;-11.81;18.77;-4.58;-9.06;-7.6
4.32;3.2;-5.77;2.47;1.56;-5.04;-11.44;-2.84;-10.07;-15.75;-7.42;-0.09;-2.01;-2.2;-8.15
4.33;3.2;2.29;2.47;1.56;-0.64;-1.74;-3.94;-1.65;-11.08;-2.29;4.12;0.82;-10.53;-4.67
4.33;3.2;4.21;2.47;1.56;-0.64;1.56;4.12;-6.32;-18.95;1.37;5.77;5.13;-2.47;1.28
4.34;3.2;-0.92;2.47;1.56;-10.8;0.55;4.03;4.85;-12.63;-6.77;-3.57;-11.99;-11.44;-6.5
4.34;3.2;1.46;2.47;1.56;-5.77;-0.92;5.4;2.11;-8.61;-2.75;-0.09;-16.57;-9.8;-3.02
4.35;3.2;3.02;2.47;1.56;-5.22;-0.46;-0.82;1.37;-3.02;6.5;1.19;-9.61;-12.91;-7.14
4.35;-0.37;9.06;-0.27;5.4;-9.25;-3.75;5.31;5.22;-12.91;3.2;-5.31;-10.8;-2.47;-5.22
4.36;-1.56;3.02;0.27;1.56;-1.74;-0.09;4.21;0.46;-8.42;0.37;-6.87;-8.33;-5.4;-0.27
4.36;5.58;3.57;-0.55;-4.67;-4.67;-7.23;3.3;2.29;-6.87;-4.85;-8.51;-3.2;-5.77;-3.57
4.37;6.32;6.68;-4.03;-4.94;-9.61;-8.51;4.3;-0.09;-16.02;-6.87;-3.85;1.65;-4.67;-2.01
4.37;1.01;8.24;-1.83;4.12;-7.23;-11.81;6.32;4.21;-11.44;2.66;-9.61;1.37;-2.29;2.29
4.38;0.09;3.48;0.82;1.01;-7.05;-5.77;2.01;-4.58;-0.64;-2.75;-5.22;-0.27;-13.64;-7.6
4.38;-0.09;4.67;2.11;4.49;-12.91;-3.39;-2.75;7.78;-2.29;-5.49;-3.57;0.92;-1.19;-5.04
4.39;-1.37;1.1;-3.3;-1.37;-10.53;-4.76;-2.56;11.17;-8.15;-3.94;-3.39;4.94;-3.57;-12.54
4.39;0.46;4.12;-4.12;-1.92;-5.04;-6.32;-6.68;11.81;-3.94;-4.3;-4.94;-0.46;-4.12;-4.3
4.4;6.32;1.56;-1.37;-0.64;-7.32;-3.94;-2.66;14.37;-6.77;-0.09;-2.29;-3.2;-11.99;-2.47
4.4;4.67;7.05;-2.01;1.37;-1.1;0.37;-13.09;14.56;-4.21;-1.92;-5.4;-4.67;-5.86;-1.28
4.41;8.7;-1.74;-2.29;-0.09;-10.16;2.56;-2.47;9.25;0.27;-1.83;2.11;-9.43;-3.94;-2.47
4.41;13.37;-3.2;0.46;3.94;-2.66;-3.94;-9.25;13.46;-1.1;-4.49;10.07;-15.84;3.39;0.92
4.42;7.51;9.25;0.46;-3.02;-4.3;-3.02;-9.25;1.01;-1.92;2.11;9.52;-6.68;-3.94;-2.29
4.42;6.41;7.97;0.46;-2.47;-9.43;-2.93;-9.25;14.83;-14.01;-5.68;6.04;-14.01;-0.09;-1.01
4.43;10.89;5.77;0.46;-5.04;-7.78;-8.15;-9.25;11.81;-6.04;-7.23;-4.85;-5.22;-2.38;-2.84
4.43;12.54;8.33;0.46;5.04;-7.78;-12.18;-9.25;8.7;-7.87;-8.15;-0.73;5.13;-3.2;-2.84
4.44;5.49;4.49;0.46;-8.15;1.01;1.28;-9.25;11.63;0.46;1.92;-1.92;-3.2;-2.11;-1.74
4.44;11.81;3.2;0.46;-3.94;-9.34;-6.04;-9.25;14.1;-6.68;-1.19;5.95;-1.1;1.56;-6.04
4.45;2.11;9.61;0.46;-2.47;-11.44;-4.12;-9.25;9.61;-2.56;-0.46;-1.01;0.27;-2.01;-0.46
4.45;5.4;7.6;0.46;0.73;-0.82;-2.11;-9.25;-5.4;-11.44;-1.92;-6.5;-1.19;-3.48;-1.01
4.46;-1.28;9.52;0.46;1.37;4.94;-7.42;-9.25;2.66;-7.42;-0.64;-6.13;1.19;-2.84;2.38
4.46;-1.19;10.44;0.46;-0.82;6.32;-1.01;-9.25;2.47;-3.11;-1.74;-9.25;7.42;-6.68;-0.09
4.47;0.46;13.46;0.46;2.66;-5.22;0.09;-9.25;-3.94;-5.4;-9.34;-9.61;-3.57;-11.99;-2.47
4.47;-6.23;6.23;0.46;2.47;-6.68;-0.09;-9.25;-4.21;-1.01;-6.04;-13.46;-4.12;-3.94;0.46
4.48;0.64;5.31;0.46;3.11;2.47;-7.78;-9.25;0.27;-7.51;-6.68;-11.26;-7.6;-6.87;-3.57
4.48;-0.09;2.84;0.46;3.11;-3.48;-5.68;9.61;10.71;-7.51;-7.14;-4.12;-9.7;1.19;-6.87
4.49;-3.39;3.2;0.46;3.11;1.92;-3.94;8.42;4.21;-11.26;-4.49;-11.08;-13.92;-0.55;3.39
4.49;-4.12;-11.17;0.46;3.11;-0.46;-0.46;3.11;2.11;-16.94;-6.32;-8.51;-15.66;-1.28;4.03
4.5;-10.89;-5.13;0.46;3.11;-0.82;-5.77;5.58;-1.37;-5.22;-8.97;-13.64;-7.51;-9.8;1.74
4.5;-10.07;-9.43;0.46;3.11;-4.94;-5.31;11.44;-10.07;-7.23;-8.7;-13.64;-9.61;-6.13;3.2
4.51;-6.32;-10.89;0.46;3.11;-0.64;-7.6;6.5;-3.66;-14.47;-14.56;-14.01;-8.06;-7.78;2.75
4.51;-3.94;-9.8;0.46;3.11;-2.56;-11.26;7.23;2.66;-13.64;-8.15;0.27;1.28;-10.16;-4.67
4.52;-9.98;-5.04;0.46;3.11;-4.12;-8.15;3.57;-0.18;-8.7;-12.18;2.75;-0.09;-4.49;-2.47
4.52;2.56;3.02;0.46;3.11;-0.64;-9.06;4.49;11.08;-8.88;-4.58;-1.74;1.46;-7.23;-2.75
4.53;-2.29;0.64;0.46;3.11;-1.74;-7.05;-4.03;-0.09;-8.7;-6.04;0.27;6.32;-8.06;-10.89
4.53;-3.57;5.4;0.46;3.11;4.67;-1.19;-0.27;-3.57;-12.54;-3.11;-1.74;1.65;-7.87;-4.21
4.54;-2.66;2.66;0.46;3.11;-4.49;-0.55;-2.11;-0.27;-6.68;-15.47;0.09;10.53;-8.33;-9.8
4.54;0.27;4.67;0.46;3.11;0.27;-1.37;0.46;1.65;-11.26;-7.23;-8.97;2.56;-5.95;1.01
4.55;0.27;8.33;0.46;1.19;6.13;1.19;-6.68;10.35;-7.05;-10.62;-4.67;5.04;-2.66;-3.75
4.55;0.27;7.6;0.46;-2.56;-2.29;0.18;-4.12;9.8;-13.82;-4.3;2.29;-1.74;6.87;-3.2
4.56;0.27;10.89;0.46;-0.27;-6.04;-10.07;-3.75;4.12;-18.13;-7.6;-7.23;-0.55;-6.68;-2.93
4.56;0.27;7.97;0.46;1.92;-3.11;-0.46;-0.27;9.98;-17.12;-4.21;-3.48;7.05;-4.03;-3.2
4.57;0.27;5.22;0.46;-1.56;-0.27;2.38;1.19;9.43;-13.09;-1.28;-3.39;-2.2;-2.93;-3.75
4.57;0.27;1.83;0.46;-6.96;-7.32;-1.74;2.11;5.22;-7.14;-2.29;1.19;-2.84;-0.09;-3.2
4.58;0.27;5.31;0.46;-0.82;-0.92;-8.33;2.01;7.78;-6.13;-1.01;1.56;-6.5;-5.13;-1.01
4.58;0.27;6.96;0.46;4.12;-1.74;-9.52;2.01;5.04;-13.46;-7.23;3.75;-2.29;-6.04;-6.41
4.59;0.27;8.33;0.46;-1.01;4.94;-7.51;-11.9;1.28;-13.73;1.19;-3.75;0.46;-8.51;-3.48
4.59;0.27;5.04;0.46;5.04;7.51;-4.21;-9.8;2.84;-17.76;-2.11;-3.57;2.75;-4.94;-0.27
4.6;0.27;7.05;0.46;4.03;-3.94;-5.68;-11.17;-3.85;-10.16;-8.88;-2.56;-1.19;-8.15;-0.82
4.6;0.27;2.66;0.46;3.48;-2.47;-4.12;-18.04;-2.84;-16.85;0.92;0.09;-15.29;-7.69;-3.11
4.61;0.27;2.47;0.46;-2.29;5.04;-4.12;-17.49;-1.65;-15.47;-9.8;-10.53;-16.57;-2.11;0.92
4.61;19.32;11.63;0.46;1.92;-2.47;1.37;-6.5;2.11;-14.01;-10.89;-8.51;-20.23;-2.66;-5.77
4.62;13.82;9.98;0.46;3.2;-0.27;-6.68;-10.89;3.39;-12.91;-14.56;-11.08;-27.56;-3.48;-5.13
4.62;8.97;16.02;0.46;4.49;-0.27;-9.06;-13.64;6.41;-9.8;-7.87;-11.26;-20.6;-0.18;-1.19
4.63;12.18;10.53;0.46;10.89;-2.84;-3.48;-5.95;-1.19;-4.94;-6.04;-15.2;-22.06;0.27;-9.25
4.63;8.51;9.8;0.46;2.66;-2.01;-4.67;-8.97;2.11;-0.09;-9.8;-19.87;-16.57;6.5;0.64
4.64;5.4;6.68;0.46;3.75;-0.64;-9.43;-8.24;5.04;-1.74;-8.42;-11.9;-14.56;-6.5;-5.22
4.64;9.06;4.85;0.46;-0.09;-0.46;-7.05;-4.03;9.43;-2.47;-3.75;-11.81;-9.43;-8.15;-2.66
4.65;-3.66;8.51;0.46;8.15;3.57;-2.47;1.28;2.66;-4.03;-9.98;-11.44;-9.25;-5.4;-3.02
4.65;-3.39;3.57;0.46;-0.09;-0.18;-8.79;-7.87;4.21;-3.75;-1.74;-7.6;-2.47;-1.19;-3.85
4.66;-1.83;-2.66;0.46;-0.82;2.11;0.27;-5.68;4.03;-4.12;-1.28;-12.91;-8.88;-7.6;-3.3
4.66;-7.87;-0.27;0.46;0.64;3.39;-2.11;-6.77;-0.09;-5.95;3.57;-14.47;-10.25;-12.27;-4.85
4.67;-14.28;5.22;0.46;-0.64;2.75;-5.4;-4.03;-9.61;-7.78;-0.27;-19.87;-6.23;-3.57;-4.21
4.67;-10.62;-0.09;0.46;1.74;5.4;-3.39;-3.94;-7.42;-2.29;1.56;-18.4;-7.05;-5.68;-1.56
4.68;-5.22;-0.09;-7.05;-0.09;5.4;-7.42;-6.13;-8.7;-3.39;-6.41;-15.47;-0.27;4.3;-1.19
4.68;-7.6;-2.56;-1.65;-0.09;5.4;-4.12;-1.65;-5.77;-3.57;-3.75;-8.42;-5.58;-2.75;3.75
4.69;4.21;-6.68;-2.29;6.13;5.4;-1.37;2.66;-4.94;-6.32;-1.56;3.57;-1.01;-4.12;-6.87
4.69;11.08;-10.62;-2.29;5.77;5.4;-3.48;-4.85;-15.47;-19.13;6.87;15.11;3.48;4.3;-1.74
4.7;3.2;-5.95;-3.39;3.39;5.4;-5.22;5.04;-3.57;-13.92;7.42;7.32;0.18;-0.09;1.37
4.7;8.88;-5.77;-1.74;5.77;5.4;1.56;0.64;-6.96;-12.27;11.08;5.4;-1.19;-2.29;3.39
4.71;11.54;-9.98;-1.37;4.58;5.4;-5.31;8.15;-8.33;-9.7;4.12;9.06;-7.69;-5.4;-2.29
4.71;13.46;-8.7;-4.85;-1.92;5.4;-3.11;5.49;-2.66;-7.51;-0.27;3.11;-2.75;-8.15;-1.01
4.72;11.17;-6.04;-3.48;-5.58;5.4;-8.33;-2.29;0.27;-13.64;7.51;0.37;-1.56;-8.15;-1.74
4.72;10.71;-1.65;-7.78;-0.64;5.4;-1.92;-0.46;-2.01;-10.25;5.95;-0.27;3.94;-3.94;0.46
4.73;15.47;-2.29;1.01;4.94;5.4;-0.92;4.49;0.46;-8.88;9.43;-8.97;-6.32;-5.77;-2.38
4.73;15.47;-3.2;-3.48;3.57;5.4;-7.87;3.57;2.75;-13.55;3.57;-8.7;-6.68;-2.11;-7.6
4.74;9.34;3.48;1.46;5.77;5.4;5.04;7.69;2.66;-10.44;1.92;-10.53;-12.27;-4.94;-5.77
4.74;9.34;2.47;1.46;-1.56;6.04;-2.38;-0.82;4.12;-12.18;0.92;3.48;-3.94;-3.2;0.46
4.75;9.34;8.24;1.46;2.47;-2.2;-3.39;-8.33;12.54;-7.6;4.67;-0.64;-1.19;-5.4;2.38
4.75;9.34;16.94;1.46;-0.82;-7.78;-5.77;0.92;16.94;-0.09;0.18;3.02;-0.64;-5.31;-9.43
4.76;9.34;11.81;1.46;0.64;0.92;-3.66;2.29;15.29;-10.71;-2.11;-5.22;0.27;-4.3;-1.28
4.76;9.34;18.22;1.46;-2.38;4.58;-2.11;4.67;7.87;-3.2;1.74;-11.35;-3.2;-9.61;-0.09
4.77;9.34;20.42;1.46;-2.66;-3.02;-1.92;1.19;4.3;-2.47;0.27;-13.64;4.85;-3.2;-0.82
4.77;9.34;8.51;1.46;-1.92;3.39;-3.57;8.33;3.57;-7.32;3.85;-12.73;-1.19;-3.66;0.82
4.78;9.34;14.1;1.46;2.66;1.74;-6.5;-7.87;4.12;-16.94;1.01;-10.53;6.32;-11.81;-0.82
4.78;9.34;19.5;1.46;-1.28;5.95;-5.49;-3.85;-4.94;-2.56;-3.75;-18.77;-1.92;-9.06;-5.4
4.79;9.34;13.55;1.46;3.39;13.92;-2.29;-4.49;1.28;-10.16;-0.64;-15.47;-3.75;-14.19;-8.7
4.79;9.34;23.71;1.46;4.21;5.04;-1.56;-5.13;2.29;-3.3;0.46;-8.33;-0.09;-8.97;-2.75
4.8;9.34;20.42;1.46;-0.09;3.57;0.92;-1.92;-3.11;-6.04;4.85;-3.39;-5.04;-15.84;-1.19
4.8;9.34;16.2;1.46;4.3;4.3;-1.37;3.57;3.02;-5.4;-1.65;3.57;0.46;-8.61;-6.13
4.81;-7.42;24.08;1.46;2.38;4.3;-1.37;-1.92;3.94;-9.8;-5.04;-4.39;-0.09;-6.32;-11.44
4.81;-9.06;16.3;1.46;3.94;4.3;-1.37;-9.98;-3.75;-6.13;3.57;-4.58;-8.88;-6.68;5.31
4.82;0.82;13.64;1.46;4.94;4.3;-1.37;-3.39;-1.92;-7.42;-10.16;-3.02;-1.56;-8.24;-3.02
4.82;3.39;7.32;1.46;-1.01;4.3;-1.37;1.01;-1.56;-7.23;-3.48;-5.77;-6.5;-4.67;2.84
4.83;-0.09;11.26;1.46;0.73;4.3;-1.37;5.4;-0.64;-7.97;-1.01;-6.68;-3.75;-7.23;0.27
4.83;-0.46;7.42;1.46;-0.82;4.3;-1.37;2.29;2.84;-8.33;2.38;-11.08;-4.94;-2.75;-4.12
4.84;-1.19;5.49;1.46;-1.74;4.3;-1.37;1.56;3.2;-11.63;-11.9;-6.04;-5.04;-6.5;-6.13
4.84;1.37;7.42;1.46;2.2;4.3;-1.37;3.39;12.63;-13;-10.44;0.27;-0.09;-7.6;-4.67
4.85;-0.64;10.53;1.46;1.65;4.3;-1.37;7.05;9.98;-9.7;-3.39;-5.4;-4.12;-6.59;-1.83
4.85;5.58;3.02;1.46;-2.66;4.3;-1.37;7.42;7.6;-4.85;-6.13;-6.5;-2.11;-2.56;-7.05
4.86;3.94;8.88;1.46;2.47;4.3;-1.37;2.66;8.33;6.13;-0.09;-9.16;-5.58;-9.61;-5.22
4.86;3.94;5.58;1.46;2.01;4.3;-1.37;0.64;6.77;0.64;-5.04;-0.82;-7.23;-8.42;-6.13
4.87;5.4;4.49;1.46;2.29;4.3;-1.37;-6.68;5.68;1.1;-2.47;-2.66;1.01;-1.19;-6.32
4.87;8.7;3.57;2.11;-1.74;-2.66;-0.92;-4.94;4.58;-1.74;-6.04;5.22;-2.11;-0.27;-6.68
4.88;0.46;2.11;-2.11;0.92;-2.2;5.04;-1.37;5.58;-2.01;-2.38;-3.57;-2.29;-10.35;1.37
4.88;3.2;1.01;3.75;2.75;5.77;0.18;1.46;8.88;-3.02;-11.9;-0.27;-1.74;-5.77;-1.19
4.89;3.57;2.38;-6.5;3.57;-0.27;0.55;4.21;6.68;-3.39;-9.98;7.05;3.57;0.18;-2.47
4.89;12.36;4.49;0.64;1.01;7.23;5.95;-2.11;6.5;5.4;-12.54;7.69;-1.19;-5.68;6.68
4.9;15.01;9.61;-1.19;-6.13;3.75;1.1;-2.84;1.92;-5.77;-2.01;7.87;-6.5;-0.92;1.74
4.9;19.96;15.84;-3.85;3.75;-0.09;6.32;-9.61;12.73;-3.39;0.55;9.06;-1.1;-1.37;-1.28
4.91;14.1;14.92;-7.23;-4.67;4.49;0.82;-7.05;12.91;-4.3;3.02;0.82;-4.3;-7.51;-4.67
4.91;21.15;7.51;-3.75;-0.09;9.06;-0.73;-4.67;10.25;-6.13;9.34;-1.74;-3.57;-12.63;-6.5
4.92;11.81;-0.18;1.56;3.02;8.33;-1.28;-11.9;5.58;-11.08;-4.67;2.84;5.49;-4.76;-9.52
4.92;24.44;-6.13;1.37;1.01;1.28;0.55;-2.47;3.3;-11.17;1.1;1.19;-3.75;-1.28;-7.05
4.93;19.5;-6.77;5.4;9.89;8.24;-6.23;-7.23;-2.01;-6.04;-1.28;-5.4;-4.94;-10.8;-2.47
4.93;16.3;-5.95;5.86;0.46;15.47;-1.28;-12.73;3.39;-5.13;-5.4;0.92;-7.05;-3.75;-5.77
4.94;13.82;-3.75;5.86;-3.66;4.76;-0.46;-15.47;0.46;-13.46;-0.82;-5.49;5.04;-1.01;-12.91
4.94;13.46;-0.09;5.86;3.39;-1.19;2.38;-10.35;-11.08;-11.08;-3.57;-4.03;1.65;-4.49;-5.68
4.95;19.23;-5.31;5.86;1.56;2.29;-2.11;-9.7;-0.18;-6.5;-6.13;-7.51;1.19;-6.32;-0.92
4.95;5.58;-2.75;5.86;4.76;5.58;1.01;-9.06;-4.39;-9.06;-7.78;-3.39;6.32;-3.2;-8.7
4.96;-0.64;-6.32;5.86;-2.11;0.82;-0.09;-12.91;-1.28;-7.87;-7.78;2.47;7.51;-4.85;-4.85
4.96;-4.12;6.13;5.86;-1.74;5.58;-0.09;-7.97;1.37;-5.31;-10.53;0.64;-1.92;-2.11;-6.68
4.97;-7.6;2.11;5.86;-7.51;0.27;9.61;3.11;-2.29;-7.97;-5.4;3.3;5.31;-6.5;-3.39
4.97;-6.87;3.94;5.86;4.21;3.57;8.97;-0.64;0.37;-7.69;-3.75;-2.11;4.3;-0.46;-5.22
4.98;-5.04;4.49;5.86;2.47;6.77;3.66;-10.53;-6.96;-4.67;-5.22;-4.85;2.66;-11.99;1.01
4.98;-5.04;7.78;5.86;-0.09;5.58;0.46;0.92;1.74;-1.01;-7.69;-13.55;4.49;-12.73;-5.4
4.99;-2.11;3.75;5.86;2.56;1.56;8.15;-3.57;-0.46;-0.27;-0.46;-2.11;-2.11;-8.51;-4.94
4.99;-4.67;5.68;5.86;3.57;9.25;2.38;-6.77;-1.1;-3.02;-1.56;-8.33;-0.27;-11.99;-5.22
5;-3.66;7.97;5.86;-1.19;2.66;4.12;-2.29;1.28;-1.74;-8.15;-13.09;-1.92;-2.66;-3.48
5;-3.66;6.5;5.86;-1.19;6.77;1.46;-0.09;2.84;-8.06;-2.93;-16.57;-0.09;0.92;-15.11
5.01;-3.66;8.33;5.86;-1.19;1.83;2.66;-7.6;-2.56;-11.81;1.19;-8.51;-0.82;-7.23;-2.93
5.01;-3.66;3.02;5.86;-1.19;4.12;-6.87;-8.79;-5.68;-9.06;-9.06;-14.74;9.43;3.39;-4.12
5.02;-3.66;6.68;5.86;-1.19;6.77;-1.74;-2.29;-3.2;-8.88;1.19;-9.06;-4.49;-9.61;-9.52
5.02;-3.66;13.64;5.86;-1.19;-1.46;5.04;0.64;0.64;-0.55;-8.88;-12.91;1.19;-11.08;-2.2
5.03;-3.66;5.13;5.86;-1.19;8.51;-7.14;1.19;2.84;-6.87;2.84;-14.19;-0.09;-8.15;-5.95
5.03;-3.66;13.28;5.86;-1.19;3.39;-2.11;0.09;3.57;-8.7;-1.37;0.82;-5.22;-11.26;0.46
5.04;-3.66;8.33;5.86;-1.19;7.51;-0.46;-13.82;2.38;-9.43;2.47;-12.91;-16.3;-7.14;-6.77
5.04;-3.66;8.51;5.86;-1.19;4.49;-1.28;1.74;1.92;-6.5;-0.09;-16.2;-13.28;-5.68;1.92
5.05;-3.66;7.87;5.86;-1.19;5.22;3.57;-7.51;-0.09;-9.06;1.37;-20.78;-21.61;-3.85;-5.95
5.05;-3.66;7.23;5.86;-1.19;0.55;3.57;-0.09;7.23;-8.33;-1.56;-20.23;-27.92;-7.78;-4.21
5.06;-3.66;13.55;5.86;-1.19;3.2;2.01;-11.08;-4.12;-12.73;4.85;-16.48;-22.61;-9.06;6.68
5.06;-3.66;8.33;5.86;-1.19;2.56;4.3;-1.92;1.92;-9.8;-3.75;-12.73;-22.8;-8.51;-8.15
5.07;2.11;4.49;5.86;-1.19;2.56;15.29;-10.71;-3.85;-6.04;-2.11;-8.7;-16.75;2.66;-4.49
5.07;0.55;8.15;5.86;-1.19;2.56;1.56;-0.09;-2.47;-8.15;-2.75;-8.88;-12.36;-0.82;-7.14
5.08;-2.47;17.94;5.86;-1.19;2.56;2.93;-2.66;-3.94;-4.39;-9.8;-12.73;-4.3;-3.66;-3.85
5.08;2.01;15.66;5.86;-1.19;2.56;2.84;-0.09;-0.37;-5.22;0.09;-20.97;-5.58;-1.19;0.46
5.09;9.52;7.42;5.86;-1.19;2.56;6.41;-3.3;3.57;-2.66;-3.94;-15.66;-5.49;-0.82;0.46
5.09;10.16;12.36;5.86;-1.19;2.56;-0.27;-1.56;1.74;0.09;8.42;-13.09;1.74;-8.33;-3.39
5.1;10.89;10.71;5.86;-1.19;2.56;-1.37;1.92;8.33;-1.56;-4.85;-11.99;6.68;-4.67;-0.09
5.1;10.62;5.58;5.86;-1.19;2.56;-0.27;1.1;11.81;8.51;1.19;-9.06;-4.67;-12.18;0.18
5.11;12.08;9.8;5.86;-1.19;2.56;4.94;-1.74;7.42;-3.39;2.84;-11.26;5.4;-11.08;1.19
5.11;8.33;7.78;5.86;-1.19;2.56;-1.19;-10.07;11.63;-6.87;0.64;-7.97;-0.46;-3.85;-1.28
5.12;5.77;6.68;5.86;-1.19;2.56;-1.37;-7.69;7.05;-5.4;5.49;-8.33;-0.27;-2.66;-7.05
5.12;21.51;4.67;5.86;-1.19;2.56;0.64;-4.67;4.49;-3.02;-0.55;-9.06;-2.29;-3.75;-5.13
5.13;11.35;2.66;5.86;-1.19;2.56;7.97;-2.38;1.01;-4.67;-14.01;-0.82;-4.67;-3.57;-4.03
5.13;14.74;1.37;-2.66;7.87;-3.39;-4.21;0.27;0.46;-4.03;-9.16;1.92;-5.22;5.95;-8.33
5.14;11.63;2.29;-2.84;-0.37;1.19;-5.58;-4.85;-1.83;-10.25;-5.4;-0.64;-4.39;-2.38;5.58
5.14;16.57;1.56;0.46;4.3;-2.01;-3.2;-3.75;-0.46;-8.51;-1.1;8.06;-5.22;-10.71;2.2
5.15;4.58;2.93;-7.78;-0.09;-0.09;6.5;-0.82;-3.75;-7.42;-0.09;11.08;-1.92;-9.43;-1.1
5.15;6.41;3.94;1.74;0.18;2.47;-0.37;1.74;-1.19;-0.64;0.82;12.18;-0.82;1.1;0.92
5.16;7.42;-1.28;4.67;2.2;-4.3;-2.75;7.78;-4.49;-10.89;-9.06;20.97;-1.1;-0.82;1.92
5.16;6.77;0.46;-5.58;8.7;0.82;-4.12;-4.67;8.33;-9.61;-9.25;18.22;-5.04;-10.71;-1.74
5.17;6.5;-5.4;-0.27;1.65;-4.12;-2.11;-2.29;9.25;-11.9;-6.32;14.28;-6.68;-1.01;-7.05
5.17;-2.47;-17.76;-3.39;-3.2;9.43;-2.84;-6.77;5.22;-13.09;2.11;6.23;-1.19;-5.77;2.47
5.18;1.28;-4.76;0.64;-3.75;2.29;-5.31;2.84;3.02;-5.22;3.02;9.16;-2.38;-7.23;-0.09
5.18;6.13;-18.49;-1.92;4.67;-2.84;-4.85;6.5;-3.02;-3.75;-10.16;2.01;-3.02;-3.2;-1.56
5.19;12.63;-18.04;2.75;-6.5;8.24;-3.57;2.75;-2.11;-9.06;-1.74;2.11;-2.11;-12.54;-0.46
5.19;18.77;-6.32;-0.46;-0.09;0.64;4.49;-0.55;-5.22;-3.85;-1.65;0.27;-10.16;-1.01;-3.39
5.2;18.77;-9.34;-9.89;1.83;6.68;-0.46;0.46;-1.83;-6.87;-2.66;6.96;-6.68;-5.13;-7.05
5.2;18.77;-8.33;-0.09;-0.09;-0.64;3.02;-10.16;3.94;-16.3;-0.09;-0.82;2.11;-3.3;-0.18
5.21;18.77;-18.59;-1.1;2.01;0.27;-6.96;-5.95;-1.83;-12.54;-0.92;4.12;-7.97;-1.74;-1.92
5.21;18.77;-7.05;4.94;2.29;-3.48;-0.09;-5.31;-9.61;-17.67;5.31;7.42;0.82;-3.11;-2.56
5.22;18.77;4.21;-5.49;2.29;-3.02;8.33;-2.84;-10.07;-9.52;1.74;-0.09;-4.21;-3.02;0.37
5.22;18.77;-2.29;2.84;-1.01;1.37;-2.2;-5.31;0.92;-10.8;-3.48;-6.5;-5.58;-6.23;-2.75
5.23;18.77;5.95;0.73;-2.56;0.46;-0.92;-1.92;-0.09;-16.3;-8.79;-1.01;-0.82;-9.43;-5.22
5.23;18.77;14.1;-4.3;4.12;-0.09;-4.67;4.85;0.27;-20.87;-3.94;-7.23;-5.31;-11.26;1.46
5.24;18.77;10.53;-0.09;-1.28;11.99;-3.75;0.73;11.17;-13;-9.52;-6.32;2.01;-8.7;-0.46
5.24;18.77;5.95;-3.02;6.32;2.29;-0.09;2.75;14.19;-18.59;0.37;-10.35;1.28;-16.2;-4.94
5.25;18.77;13;-0.09;-2.93;2.11;5.95;-2.29;6.41;-17.67;0.82;-16.39;4.12;-5.49;-1.56
5.25;18.77;7.05;4.12;0.55;-0.64;-0.92;-5.49;13.82;-12.73;-2.29;-9.89;0.73;-10.71;-4.3
5.26;18.77;-1.74;3.57;-0.09;4.76;0.37;-7.6;7.05;-14.56;-3.75;-14.19;-1.37;-7.78;-5.58
5.26;-0.27;4.67;3.57;-1.19;5.31;-3.75;-8.15;5.49;-18.04;-6.5;-14.28;6.5;-9.43;0.46
5.27;-0.55;-0.46;3.57;1.37;5.95;0.27;-9.25;6.77;-11.44;-6.59;-6.68;-2.38;-8.7;2.11
5.27;-2.2;0.46;3.57;1.28;-8.97;0.18;-5.04;11.17;-15.11;0.82;-1.37;0.64;-10.53;-4.67
5.28;-1.92;6.5;3.57;1.01;2.47;-1.74;1.65;-1.1;-14.47;-1.37;1.01;6.96;-7.97;-2.47
5.28;-0.09;8.88;3.57;6.59;5.68;-4.12;4.12;0.73;-5.68;-1.92;-4.67;3.94;-3.11;-4.67
5.29;-9.25;-0.46;3.57;2.01;-1.74;-3.3;-1.74;5.68;-6.77;-9.25;-6.32;-1.65;-5.4;0.92
5.29;-6.23;-0.82;3.57;0.64;3.48;-6.5;-1.74;6.32;-6.87;-4.49;-14.74;0.27;-14.56;-4.12
5.3;-2.01;7.05;3.57;-1.74;8.24;-10.07;-1.65;5.49;-8.51;-0.82;-9.34;1.92;-6.87;-2.66
5.3;6.68;2.11;3.57;2.11;5.95;-10.35;-6.04;14.1;-10.99;-1.19;-0.27;-3.75;-9.34;-2.11
5.31;3.94;2.84;3.57;2.47;10.35;-10.53;-4.3;4.49;-5.4;-7.6;-3.3;-3.2;-12.54;-2.29
5.31;7.78;0.55;3.57;7.32;-0.92;-3.85;-7.97;5.58;-9.61;-3.94;0.27;-11.17;-6.68;2.66
5.32;1.37;5.04;3.57;-1.01;-0.46;-1.74;0.46;9.34;-7.87;-1.74;3.75;-13;-9.43;4.94
5.32;-6.87;13.28;3.57;3.57;-0.64;2.11;3.39;8.33;-0.09;-1.92;7.97;-10.53;-4.12;-3.57
5.33;-6.87;13.28;3.57;3.57;-0.64;3.2;-2.29;5.22;-10.53;-0.09;9.98;-3.02;-8.97;-1.28
5.33;-6.87;13.28;3.57;3.57;-0.64;2.84;1.1;8.7;-13.73;2.11;20.23;-5.4;-2.2;3.94
5.34;-6.87;13.28;3.57;3.57;-0.64;-4.39;8.51;14.1;-16.94;2.11;22.25;-2.66;-3.11;-0.09
5.34;-6.87;13.28;3.57;3.57;-0.64;-6.68;1.01;-4.67;-14.92;1.74;24.44;-10.71;-13.18;3.48
5.35;-6.87;13.28;3.57;3.57;-0.64;-3.2;-3.2;4.12;-9.43;2.01;8.51;-0.82;-15.47;-5.95
5.35;-6.87;13.28;3.57;3.57;-0.64;-4.85;-3.94;12.73;-2.38;-1.01;3.39;-5.58;-7.6;-2.2
5.36;-6.87;13.28;3.57;3.57;-0.64;-4.85;6.5;4.21;4.3;5.95;3.57;-8.15;-9.8;-0.09
5.36;-6.87;13.28;3.57;3.57;-0.64;-4.67;-3.02;11.99;-2.11;9.34;14.47;-13.18;-9.89;-6.13
5.37;-6.87;13.28;3.57;3.57;-0.64;-8.06;-2.66;13.82;-6.04;11.26;4.3;-12.54;-8.88;3.75
5.37;-6.87;13.28;3.57;3.57;-0.64;3.57;-0.27;11.26;-0.82;9.25;11.26;-3.57;-7.05;-5.04
5.38;-6.87;13.28;3.57;3.57;-0.64;2.01;-0.73;7.23;-7.05;3.57;9.43;-7.6;-12.08;-0.92
5.38;-6.87;13.28;3.57;3.57;-0.64;-0.09;1.19;3.39;-7.05;6.5;4.03;-5.77;-11.44;-6.13
5.39;-6.87;13.28;3.57;3.57;-0.64;-3.94;-1.83;13.55;-6.04;2.84;4.76;-1.74;-3.85;-3.39
5.39;-6.87;3.94;1.01;1.01;-2.66;-2.29;-1.83;13.55;-0.27;-0.18;1.56;-0.55;-5.95;-6.68
5.4;-6.87;2.47;-0.09;2.11;-2.29;-7.87;-1.83;13.55;-1.74;-5.49;-3.57;-2.66;-9.43;1.37
5.4;-6.87;-1.01;-1.65;3.11;-0.82;4.85;-1.83;13.55;-5.68;2.29;-0.82;0.82;-3.94;-2.47
5.41;-6.87;-5.04;0.92;-2.29;1.56;-6.5;-1.83;13.55;-12.91;-7.05;-4.39;-0.73;-5.58;-8.51
5.41;-6.87;-0.27;0.82;5.95;-0.09;-3.2;-1.83;13.55;-6.96;-4.03;-6.04;1.19;-6.41;-0.92
5.42;-6.87;-0.82;4.12;-1.56;-5.13;-12.91;-1.83;13.55;-8.42;-9.61;-3.57;4.12;-5.95;-3.75
5.42;-6.87;3.85;-5.04;7.78;-2.01;-2.66;-1.83;13.55;-9.7;-4.94;-5.68;0.09;-12.45;-8.51
5.43;-6.87;9.06;-2.47;3.57;1.92;-8.7;-1.83;13.55;-7.32;-2.29;-13.28;-4.21;-4.12;-13.09
5.43;-6.87;-1.01;-5.13;-1.01;6.5;-2.11;-1.83;13.55;-8.79;-2.75;-3.75;1.19;-7.6;-0.09
5.44;-6.87;3.75;0.55;0.64;3.57;0.37;-1.83;13.55;-11.44;-7.78;-12.91;5.31;-8.51;-3.11
5.44;-6.87;5.22;-0.09;-2.01;-7.51;-3.66;-1.83;13.55;-12.27;-10.16;-18.49;0.82;-11.99;-2.11
5.45;-6.87;2.01;-1.19;1.37;-8.06;-6.32;-1.83;13.55;-13.28;-9.43;-16.66;2.29;-6.77;-5.58
5.45;-6.87;2.66;1.28;1.37;-2.29;-2.01;-1.83;13.55;-9.89;-13.82;-18.59;-0.09;-9.98;-0.09
5.46;4.12;6.5;1.28;1.01;-4.21;-3.57;-1.37;-1.92;-14.37;-15.47;-15.47;2.01;-2.66;-7.78
5.46;-0.64;4.85;1.28;2.66;-6.87;2.29;-3.57;-3.94;-13.28;-10.71;-12.73;0.82;-4.12;3.75
5.47;12.54;9.7;1.28;2.66;3.11;0.27;-6.68;-8.24;-11.81;-11.44;-11.99;5.22;6.68;-1.74
5.47;13.82;13.64;1.28;10.35;-3.02;-0.46;4.12;5.04;-13.82;-12.36;-12.54;-1.92;-1.1;-2.2
5.48;18.59;7.78;1.28;1.56;2.47;-2.11;1.1;-4.85;-6.32;-13;-9.7;-5.4;-2.75;-5.04
5.48;11.08;3.11;1.28;3.57;2.11;-9.34;-2.47;2.84;-11.08;-8.79;-13.09;-6.04;-1.19;-7.42
5.49;0.64;2.66;1.28;7.6;2.66;0.46;1.74;2.29;-2.01;-5.22;-9.61;-5.95;-5.58;-6.04
5.49;3.94;11.63;1.28;5.58;-3.2;-2.84;8.24;1.74;-4.03;-5.22;-7.14;-8.33;-5.58;6.13
5.5;8.61;7.05;1.28;-5.58;1.01;-3.94;-2.75;6.5;-6.5;-7.6;-12.36;-8.33;-1.56;-2.2
5.5;2.11;9.61;1.28;4.49;-0.09;4.12;-4.3;4.12;-12.82;-2.66;-10.53;-2.93;-12.36;-2.84
5.51;-0.27;15.47;1.28;3.94;1.46;3.85;-5.49;-2.29;-12.36;-3.02;-5.4;-0.46;-7.14;-5.4
5.51;-0.09;17.49;1.28;4.67;-3.3;3.39;-1.46;3.57;-14.47;-2.66;-11.26;2.66;-3.85;-3.39
5.52;0.18;13.64;1.28;4.58;3.94;-4.21;2.66;4.94;-15.93;1.74;-14.56;-0.09;-2.29;-2.47
5.52;0.18;9.8;1.28;4.58;1.19;5.4;-0.55;3.48;-17.21;0.55;-10.89;-6.13;1.37;-4.49
5.53;0.18;12.36;1.28;4.58;-6.77;-1.28;-12.18;3.48;-15.56;0.37;-13;-4.67;-6.77;0.46
5.53;0.18;5.77;1.28;4.58;-2.38;-8.15;-2.75;0.37;-20.23;6.5;-15.29;2.11;2.29;-4.85
5.54;0.18;4.3;1.28;4.58;1.46;1.46;3.11;1.46;-14.37;-0.27;-12.82;-1.01;-4.67;-0.09
5.54;0.18;4.12;1.28;4.58;-0.09;-6.32;3.94;-1.1;-13.46;1.74;0.46;1.37;-11.44;-1.1
5.55;0.18;6.13;1.28;4.58;-5.58;-10.62;0.27;-3.02;-13.09;-2.75;-2.66;-2.75;-5.77;-1.37
5.55;0.18;1.92;1.28;4.58;-0.82;-8.33;6.5;-1.74;-21.33;-5.77;7.6;-12.54;-7.42;-2.29
5.56;0.18;2.38;1.28;4.58;-3.2;-5.04;0.18;-2.66;-21.33;-1.01;8.51;-16.11;-3.02;1.01
5.56;0.18;1.56;1.28;4.58;3.11;3.66;-8.24;6.23;-21.15;-0.46;2.84;-18.13;-4.85;-1.1
5.57;0.18;0.55;1.28;4.58;-5.22;1.28;4.85;-5.4;-13.09;-6.87;4.21;-10.44;-8.79;-3.57
5.57;0.18;-2.84;1.28;4.58;-0.27;3.11;-2.38;-9.61;-20.69;0.64;16.39;-15.47;-4.12;2.66
5.58;0.18;-1.92;1.28;4.58;-0.82;5.04;-3.2;-8.7;-10.35;-5.22;14.56;-17.49;-4.49;-4.85
5.58;0.18;-1.19;1.28;4.58;2.38;-7.6;-2.47;-9.7;-14.19;-8.33;8.7;-19.5;-5.95;-1.83
5.59;0.18;1.56;1.28;4.58;5.04;-2.75;-1.37;-1.37;-8.61;-0.55;11.44;-23.53;-8.42;-5.22
5.59;0.18;-4.49;1.28;4.58;-10.44;-3.48;-1.74;-1.92;-14.19;-0.09;10.07;-25.82;-6.13;-1.19
5.6;0.18;-10.53;1.28;4.58;-9.25;1.01;-4.21;-7.42;-8.51;3.75;14.92;-27.37;-6.68;-4.67
5.6;0.18;-14.92;1.28;4.58;-12.18;-4.85;-12.18;-4.94;-14.01;-2.29;23.35;-9.8;-11.08;4.03
5.61;0.18;-9.06;1.28;4.58;-10.44;-5.4;0.55;-7.6;-4.21;-7.6;18.22;-11.08;-7.42;-10.89
5.61;0.18;-10.44;1.28;4.58;-9.61;-2.66;-12.63;0.82;-13.09;-8.7;9.43;-6.87;-2.38;0.46
5.62;0.18;-16.02;1.28;4.58;6.5;-2.38;-5.95;-11.08;-3.48;-2.01;10.89;4.67;-6.04;0.92
5.62;0.18;-22.98;1.28;4.58;-4.3;-4.67;-6.23;6.41;-11.26;2.47;-0.82;-7.42;-3.2;-1.37
5.63;0.18;-18.4;1.28;4.58;-0.09;-5.4;-3.2;3.57;-3.94;11.44;-6.04;-3.02;-6.32;-1.19
5.63;0.18;-16.57;1.28;4.58;2.11;-2.66;-8.7;8.51;-7.14;8.06;-10.71;-3.2;-6.32;-2.66
5.64;0.18;-11.26;1.28;4.58;2.29;-5.95;2.01;7.87;-4.67;9.06;-1.37;-4.67;-1.65;2.38
5.64;0.18;-8.06;1.28;4.58;-5.86;-10.89;0.82;5.77;-0.73;7.42;-1.83;-10.25;-9.25;-5.22
5.65;0.18;-14.37;1.28;4.58;0.64;-2.29;-0.09;11.44;-7.6;1.74;-1.19;-11.81;-5.95;-3.75
5.65;-0.55;-5.95;0.64;2.11;5.4;-1.56;0.46;4.03;-2.29;3.94;-3.75;-7.51;-2.29;-10.16
5.66;-11.44;-10.8;2.29;-4.12;2.29;-6.23;1.74;11.26;-0.09;2.38;-4.85;-2.11;-7.23;0.27
5.66;-3.66;-4.67;-3.02;2.75;-6.5;-2.47;3.11;9.25;-1.83;-3.75;-10.16;-3.57;-7.05;-0.55
5.67;-12.91;-8.15;-3.39;-2.29;-0.09;-1.56;3.39;7.78;-7.05;-3.75;-10.16;-2.01;-5.95;-3.75
5.67;-7.05;-4.67;2.11;-5.4;-2.2;-7.6;3.57;14.37;5.22;-0.82;-12.54;-5.49;-9.98;3.2
5.68;-1.65;-0.09;-9.52;0.82;-9.43;-6.13;4.58;6.77;-7.23;3.39;-16.75;-0.64;-3.57;-0.09
5.68;-9.61;-9.61;-5.4;-0.09;5.4;-9.43;-3.11;6.77;-1.37;-2.47;-8.51;0.46;-6.87;-1.37
5.69;-3.94;-0.09;1.65;-6.68;-6.68;-3.39;6.13;4.85;2.29;1.65;-10.99;-1.92;-15.84;-5.04
5.69;4.12;3.39;-5.58;-1.37;0.46;-3.48;1.37;-0.73;-11.63;-1.37;-14.01;-5.22;-9.06;-2.75
5.7;-7.97;7.51;-5.95;-7.51;-5.58;-4.3;3.66;2.29;-6.13;-7.42;-15.66;-4.3;-1.83;0.82
5.7;-6.68;6.96;1.74;10.8;-1.19;0.64;6.32;2.11;-12.27;-16.94;-16.57;-1.01;-4.21;-1.92
5.71;-2.38;11.08;0.27;-0.09;-2.2;2.84;8.7;5.77;-11.08;-9.61;-13;-0.27;-12.18;-8.61
5.71;2.84;9.7;1.74;-0.55;-2.84;0.27;3.75;2.11;-9.98;-8.51;-11.99;1.56;-6.68;-2.66
5.72;-1.01;7.78;1.65;-6.32;-1.65;-4.94;-0.27;2.11;-8.7;-8.61;-15.2;-8.51;-1.92;-5.95
5.72;4.76;11.35;-0.09;4.12;1.92;-4.12;3.75;2.11;-18.22;-8.51;-19.13;-0.09;-1.83;1.37
5.73;6.87;10.71;-5.58;2.38;3.3;2.11;4.67;2.11;-12.18;-7.23;-1.92;2.11;-1.65;0.64
5.73;7.97;4.85;-1.74;2.47;-10.25;-0.27;8.15;2.11;-21.42;-1.19;-7.23;2.66;-6.5;-3.2
5.74;10.44;4.85;-2.11;2.47;-2.84;-8.42;6.96;2.11;-8.42;-5.58;-10.44;1.56;-8.88;-2.47
5.74;3.57;12.91;0.73;3.85;2.11;-1.37;7.05;2.11;-16.57;-0.09;-2.47;2.2;-0.27;-1.92
5.75;8.24;0.64;-4.12;0.46;-3.02;-0.82;7.14;2.11;-21.88;-5.77;-6.87;-3.85;-6.96;1.37
5.75;10.35;1.65;-3.75;3.02;-9.25;-4.85;3.94;2.11;-13.92;-4.49;-3.11;-4.85;-10.71;8.33
5.76;7.97;-1.92;-1.28;1.01;-2.75;0.82;4.03;2.11;-13.82;-0.46;-9.61;-7.05;-12.73;1.92
5.76;4.21;4.58;-3.75;7.05;-2.29;-3.02;3.57;2.11;-15.01;0.92;-6.87;-1.37;-10.99;-1.37
5.77;-0.82;-2.84;-3.39;5.49;0.27;4.94;-9.06;2.11;-18.4;-6.41;-14.19;-3.2;-4.67;-6.13
5.77;0.64;3.75;6.04;11.44;3.02;0.09;-6.13;2.11;-16.2;-11.08;-15.11;-1.74;-1.19;-4.12
5.78;5.58;-1.19;0.27;0.37;-6.5;-3.94;-1.19;2.11;-21.33;-2.56;-22.06;1.74;-2.84;-6.87
5.78;5.58;6.68;0.27;0.37;1.56;-5.04;-1.01;5.58;-16.57;-6.04;-13.28;-4.12;1.01;-9.06
5.79;5.58;4.12;0.27;0.37;-1.92;5.04;-3.85;-0.92;-23.9;-4.3;-18.95;0.82;-0.09;2.66
5.79;5.58;7.6;0.27;0.37;1.74;-5.04;-13.28;-0.18;-15.29;-1.01;-8.79;-4.49;-4.94;1.19
5.8;5.58;12.27;0.27;0.37;3.39;-5.68;-10.71;0.46;-19.5;-7.78;-14.47;10.8;1.1;-0.82
5.8;5.58;7.97;0.27;0.37;1.19;-1.92;-5.4;-1.92;-18.22;-10.71;-14.56;1.01;-2.11;-3.39
5.81;5.58;7.97;0.27;0.37;1.28;-4.67;-6.59;-0.64;-11.44;-13;-2.11;1.37;-9.06;-2.11
5.81;5.58;8.33;0.27;0.37;-3.2;-8.7;-0.27;-2.01;-10.89;-4.3;-2.11;-2.01;-5.49;2.29
5.82;5.58;11.81;0.27;0.37;-4.85;2.29;2.47;4.58;-5.58;-4.85;-8.33;-7.42;0.64;-5.4
5.82;5.58;9.61;0.27;0.37;-6.04;-9.89;4.12;1.19;-1.65;-0.37;-9.61;2.01;-2.29;-0.09
5.83;5.58;8.33;0.27;0.37;-6.96;-2.01;-1.56;2.11;-12.54;-4.21;-15.11;-6.5;-8.33;-10.16
5.83;5.58;10.35;0.27;0.37;-10.8;-0.27;1.19;6.68;-6.32;-7.6;-23.16;-7.23;-5.58;-3.94
5.84;5.58;8.7;0.27;0.37;-9.06;2.11;-0.27;5.4;-9.06;-2.29;-24.44;-2.29;-1.37;-6.41
5.84;5.58;5.31;0.27;0.37;-0.09;0.18;-0.46;3.75;-1.1;-3.75;-18.86;-6.68;-1.74;-9.98
5.85;5.58;4.3;0.92;-0.18;0.46;-1.65;-2.11;5.22;-5.31;-3.94;-10.53;-7.05;-3.75;-8.51
5.85;5.58;7.97;-0.09;-1.83;-1.19;-7.42;-2.84;2.75;-13;-2.29;-6.68;-3.2;1.83;-5.4
5.86;5.58;3.66;-2.29;-0.27;-5.13;-6.5;-10.99;-3.57;-6.68;-2.01;2.2;-1.74;3.02;-5.04
5.86;5.58;-7.69;0.64;-0.92;5.22;-7.78;-7.51;-7.05;-18.59;-4.3;3.02;7.6;-2.11;1.92
5.87;5.58;-6.41;1.37;-1.65;0.82;-13;-9.16;-13.64;-3.94;-7.69;10.62;-0.09;1.28;-0.82
5.87;5.58;-5.22;-3.94;2.56;-6.13;-8.88;-16.57;-1.92;-6.87;-0.09;10.71;-5.04;-12.54;-1.28
5.88;5.58;-15.01;-2.47;8.88;-1.92;-8.97;-12.82;-7.78;-15.47;-6.13;17.94;-3.85;-13.82;1.01
5.88;5.58;-22.43;-3.02;5.77;-0.82;-8.06;-15.2;-8.97;-11.99;-0.09;18.77;-1.46;-11.26;-7.23
5.89;5.58;-13.64;-3.94;2.93;3.02;-1.01;-6.5;-0.09;-6.5;0.27;12.18;-2.29;-9.8;0.27
5.89;5.58;-19.87;-7.51;7.23;-8.42;-0.09;-7.6;-1.19;-5.04;6.13;8.33;1.01;-14.19;-3.75
5.9;5.58;-16.85;-2.75;6.32;0.46;-0.27;-3.57;-2.84;-5.13;-1.01;7.51;-4.85;-9.61;-6.96
5.9;5.58;-21.33;-0.92;11.63;-1.01;7.42;-3.39;-1.37;-2.84;0.27;9.8;-12.36;-9.61;-4.67
5.91;5.58;-18.22;-5.04;6.41;5.58;-1.74;-2.66;1.74;-12.36;-0.09;14.47;-11.54;-4.12;-9.06
5.91;-0.92;-11.26;-0.37;9.61;4.85;-1.19;1.83;1.74;-8.15;2.75;10.07;-8.7;-12.36;-4.76
5.92;7.32;-6.77;-2.01;7.6;1.46;7.05;-0.46;1.74;-13.09;4.94;14.74;-15.75;-3.39;-5.4
5.92;-0.73;-5.04;0.37;7.23;-2.11;-3.3;2.11;1.74;-12.08;5.77;2.11;-9.8;-6.32;-1.1
5.93;-3.02;-4.94;0.64;3.3;-2.38;3.2;-2.47;1.74;-15.66;2.66;4.49;-5.04;-11.99;0.64
5.93;-4.12;-1.74;-1.19;0.27;-2.56;-1.1;-2.66;1.74;-8.97;-6.04;11.81;-3.3;-4.3;-3.94
5.94;-8.15;-1.92;3.02;8.88;1.01;-6.32;3.2;1.74;-7.42;-0.64;8.15;1.19;-2.47;-5.95
5.94;-7.78;-0.64;-3.2;2.84;-2.2;-7.23;1.19;1.74;-19.59;3.2;5.77;-2.66;-3.94;0.27
5.95;-5.68;3.57;-1.01;0.27;-3.75;-9.25;1.92;1.74;-18.95;2.47;0.64;-5.04;-8.06;-0.82
5.95;-5.04;5.13;-3.02;0.46;2.66;-3.85;1.56;1.74;-16.94;1.19;11.63;-6.5;-9.43;-2.84
5.96;-1.92;4.76;-0.64;5.04;-1.1;-0.46;-9.06;1.74;-14.19;-5.77;10.16;-3.85;-10.71;-7.23
5.96;-1.46;3.75;-1.92;7.42;-2.11;1.1;-0.09;1.74;-18.04;-3.75;8.33;-3.75;-5.58;-5.95
5.97;0.82;15.93;-0.09;9.98;-3.57;-8.88;-10.16;1.74;-14.1;-3.3;10.16;-3.57;-4.67;-6.13
5.97;6.68;7.78;-9.25;-0.09;-1.28;-2.38;2.84;1.74;-5.58;-4.3;15.93;-2.66;-4.21;-4.21
5.98;-1.56;14.74;-9.25;-0.09;-2.47;-0.27;-14.28;-0.82;-8.51;-2.75;17.4;-6.96;0.92;-5.22
5.98;2.66;13.64;-9.25;-0.09;-1.1;-3.2;-9.61;-2.75;-12.63;6.68;6.59;-4.3;-9.43;4.12
5.99;-0.82;22.43;-9.25;-0.09;-0.82;-1.65;-5.4;-0.46;-8.51;1.37;1.74;-2.29;-9.43;-4.03
5.99;4.67;22.61;-9.25;-0.09;-2.66;-3.66;-2.11;2.11;-19.13;1.74;6.04;4.85;-7.78;-2.29
6;-4.12;13.09;-9.25;-0.09;-0.27;-5.04;4.12;2.11;-6.68;-0.46;1.74;-3.75;1.37;-2.2
6;-4.39;14.01;-9.25;-0.09;-4.58;-7.42;-2.47;3.94;-7.14;-0.09;2.11;-4.3;-7.32;-6.68
6.01;-18.49;7.69;-9.25;-0.09;-4.76;-9.98;3.75;11.08;-2.47;-1.56;5.22;-7.23;-7.42;-7.05
6.01;-15.11;11.99;-9.25;-0.09;-0.82;-5.68;0.27;2.11;-18.22;-4.85;-3.94;-6.32;-7.05;-8.15
6.02;-15.56;8.42;-9.25;-0.09;9.34;-1.83;4.12;-2.47;-15.11;-7.6;-12.82;-6.41;-14.74;-3.3
6.02;-10.89;10.16;-9.25;-0.09;4.67;-2.29;-1.37;6.41;-9.43;-0.09;-7.14;-9.98;-12.82;-5.58
6.03;-15.11;12.54;-9.25;-0.09;2.47;2.29;-6.13;-0.09;-18.4;-9.61;-13.82;-12.18;-8.42;-13.37
6.03;-9.06;11.17;-9.25;-0.09;6.68;-3.94;-2.56;-0.46;-15.2;-8.79;-6.77;-11.81;-10.89;-10.44
6.04;-5.04;11.99;-9.25;-0.09;-3.2;-1.83;-5.58;-2.38;-12.73;4.67;-5.4;-6.77;-8.33;-6.96
6.04;-5.04;11.99;-9.25;-0.09;3.02;-1.92;-0.09;-2.84;-11.08;-2.84;-16.39;-1.1;-5.77;-8.61
6.05;-5.04;11.99;-9.25;-0.09;5.04;-3.75;-2.93;-2.66;-14.47;-13.09;-20.6;-9.7;-0.27;3.2
6.05;-5.04;11.99;-9.25;-0.09;-0.09;-6.77;-10.53;0.18;-20.42;-4.85;-23.62;-5.31;-0.64;-3.39
6.06;-5.04;11.99;-9.25;-0.09;-1.92;-0.27;-3.2;-3.2;-11.81;-11.17;-27.47;-5.58;-2.84;-7.97
6.06;-5.04;11.99;-9.25;-0.09;2.29;-2.66;3.48;-7.32;-10.35;-8.7;-18.22;-1.74;1.19;-2.11
6.07;-5.04;11.99;-9.25;-0.09;-0.82;-4.03;1.92;-6.68;-12.91;-9.8;-25.91;-10.16;-7.23;0.64
6.07;-5.04;11.99;-9.25;-0.09;-2.75;-3.39;-3.66;-2.47;-13.09;-5.04;-24.08;-8.42;-9.25;-8.33
6.08;-5.04;11.99;-9.25;-0.09;1.56;-0.64;-3.94;-3.94;-11.63;3.57;-27.19;-10.16;-5.77;-13.55
6.08;-5.04;11.99;-9.25;-0.09;4.12;-5.58;-4.3;0.27;-19.59;-0.27;-26.46;0.46;-2.66;-6.04
6.09;-5.04;11.99;-9.25;-0.09;5.22;-10.44;-8.61;-1.92;-13;-0.09;-32.68;-2.66;-5.22;-3.66
6.09;-5.04;11.99;-9.25;-0.09;2.11;2.38;-4.12;-1.92;-12.54;-2.47;-39.46;-5.22;-10.71;-11.26
6.1;-5.04;11.99;-9.25;-0.09;1.37;-2.29;1.01;-5.77;-17.12;4.12;-35.98;-9.61;-11.17;-2.01
6.1;-5.04;11.99;-9.25;-0.09;3.75;0.18;-7.78;3.57;-17.21;6.41;-34.15;-7.78;-2.66;-6.87
6.11;7.14;14.19;-3.94;3.11;-2.29;-6.87;0.64;-1.65;-14.92;0.64;-36.44;-5.22;-2.29;-4.85
6.11;5.13;6.32;-3.39;3.3;1.37;-3.2;2.29;-10.53;-16.48;3.2;-35.98;-3.2;-7.51;-5.04
6.12;5.58;1.65;3.94;1.56;-1.92;-3.39;1.65;-0.09;-12.91;-3.48;-30.49;-1.01;-0.09;-1.37
6.12;-0.09;1.92;-5.68;4.12;-2.29;-0.82;2.11;-1.65;-15.11;3.94;-22.89;-10.25;-8.15;-7.78
6.13;0.82;-1.28;1.19;-3.02;-1.56;-11.26;-1.56;0.64;-9.98;-0.09;-20.6;-9.8;-11.54;-6.96
6.13;1.19;4.85;2.38;-3.75;-5.95;-5.04;3.85;-6.5;-13.46;-6.68;-23.53;-16.57;-4.49;-4.85
6.14;-1.01;1.19;-0.46;0.64;-9.16;-14.56;-3.3;-1.74;-11.26;-0.82;-9.98;-11.35;-8.33;-11.81
6.14;-7.87;5.04;1.19;13.55;0.46;-7.6;-5.04;-0.27;-11.54;-6.32;-9.61;-5.04;-5.58;-1.83
6.15;-11.81;6.5;-0.09;6.5;2.47;-7.6;-7.14;-5.31;-10.16;-2.47;-17.49;-1.28;-10.07;-7.6
6.15;-0.09;3.3;-2.01;12.54;9.25;-11.99;-2.47;-1.37;-9.06;4.67;-5.49;-0.27;-3.02;-1.56
6.16;-4.21;-3.02;-4.12;5.68;-9.25;-1.28;-5.4;0.18;-2.84;1.01;-8.15;0.92;-6.13;-5.13
6.16;0.55;-6.32;-2.84;4.85;-2.47;-3.75;-4.12;0.82;-7.51;0.27;-13.09;5.77;-6.13;-9.61
6.17;2.47;-5.4;-10.53;5.77;3.94;-8.7;-2.29;0.27;-7.97;4.49;-4.85;-1.37;3.02;-7.05
6.17;-3.2;2.84;-3.02;3.94;-4.49;-8.7;3.2;5.77;-9.61;-1.37;9.43;0.82;-3.2;-7.6
6.18;-7.6;3.85;5.58;1.19;-7.6;-8.7;-5.22;2.11;-9.25;2.01;12.08;9.25;-6.32;0.73
6.18;-1.92;1.19;-7.42;6.59;-3.57;-8.7;-2.29;5.58;-11.26;-1.74;16.02;3.2;-3.48;-5.13
6.19;-12.27;8.24;4.67;5.04;0.46;-8.7;-0.27;1.01;-4.94;0.64;18.22;5.31;-2.11;-5.4
6.19;-11.99;7.97;-0.09;-3.3;-5.58;-8.7;-7.6;11.08;-3.57;-3.94;21.7;2.11;4.76;-2.47
6.2;-12.54;7.97;3.3;0.64;-4.94;-8.7;3.2;9.43;-7.14;-0.09;24.81;-1.28;4.85;-2.38
6.2;-3.94;-1.28;-2.29;-0.64;1.92;-8.7;-7.14;19.5;-10.35;1.37;21.15;-4.85;-8.15;-0.09
6.21;-4.21;-0.55;1.56;-3.94;1.37;-8.7;4.49;10.44;-14.28;-8.15;27.01;-2.2;-2.84;-4.21
6.21;-2.29;3.02;-7.42;2.47;9.61;-8.7;-12.27;10.71;-11.63;-2.84;16.02;-15.47;0.64;-5.4
6.22;1.74;10.35;1.37;8.51;4.58;-8.7;-5.31;20.32;-6.13;-7.23;13.82;-11.81;1.74;-6.23
6.22;-9.06;-1.74;3.85;7.69;8.88;-8.7;-6.77;12.27;-8.51;-3.57;11.54;-10.89;-3.75;-5.77
6.23;-6.32;2.84;0.37;3.57;3.75;-8.7;-1.19;13.09;-12.54;-3.75;16.57;-7.32;-3.85;-5.58
6.23;4.49;5.58;7.97;2.38;3.11;-8.7;-5.4;12.27;-14.83;-6.87;19.68;-12.27;-4.12;-8.61
6.24;4.49;7.78;6.68;2.38;2.47;-5.95;-6.77;12.27;-16.75;-4.76;28.11;-9.7;-1.19;-4.94
6.24;4.49;0.64;1.92;2.38;-8.7;-0.55;-5.22;12.27;-18.4;-3.94;16.66;-7.69;0.09;1.74
6.25;4.49;10.89;3.57;2.38;0.18;-6.68;-4.94;12.27;-18.4;-8.51;25.54;-6.32;-0.46;0.64
6.25;4.49;4.49;-7.14;2.38;2.2;-4.03;1.92;12.27;-18.4;-8.51;21.42;-11.63;-2.11;-0.82
6.26;4.49;4.85;4.3;2.38;1.1;-0.82;7.42;12.27;-11.81;-3.57;18.77;-3.2;-3.57;5.68
6.26;4.49;14.1;-1.19;2.38;2.29;-10.07;14.19;12.27;-12.54;-2.11;22.52;-3.57;-18.31;-2.66
6.27;4.49;16.02;-3.57;2.38;-0.09;-5.04;3.85;12.27;-12.91;-7.78;17.12;-4.85;-2.66;-4.76
6.27;4.49;15.47;0.64;2.38;-2.47;-3.39;16.66;12.27;-9.43;-1.56;15.11;-12.73;-0.27;-0.64
6.28;4.49;16.2;-2.66;2.38;0.09;-9.8;0.18;12.27;-10.89;-5.68;13.64;-16.02;-0.92;-0.09
6.28;4.49;4.21;-4.21;2.38;-6.23;-1.92;-0.55;12.27;-7.6;1.01;2.47;-16.2;-4.85;0.27
6.29;4.49;10.71;2.11;2.38;-2.2;-0.09;-0.27;12.27;-14.01;6.32;5.31;-1.92;-3.02;-0.27
6.29;4.49;2.66;-2.29;2.38;3.3;-9.43;0.82;12.27;-15.29;-2.38;-7.23;3.57;-1.74;-2.84
6.3;4.49;7.42;7.14;2.38;-4.67;-6.87;8.33;12.27;-12.18;-9.34;-4.03;-0.27;-0.82;-5.58
6.3;4.49;1.65;7.14;2.38;-3.75;-6.87;8.33;12.27;-13;-9.89;-22.06;2.66;6.87;-11.08
6.31;4.49;5.4;7.14;2.38;3.2;-6.87;8.33;12.27;-20.14;-4.12;-12.54;-0.46;-0.64;1.01
6.31;4.49;5.95;7.14;2.38;-0.27;-6.87;8.33;12.27;-21.06;-7.97;-20.23;-1.92;-2.66;-2.29
6.32;4.49;1.65;7.14;2.38;-2.29;-6.87;8.33;12.27;-32.32;-5.31;-30.58;11.44;-1.37;-1.92
6.32;4.49;5.77;7.14;2.38;2.66;-6.87;8.33;12.27;-18.77;-8.42;-21.7;11.35;-0.46;-6.13
6.33;4.49;3.39;7.14;2.38;-1.56;-6.87;8.33;12.27;-12.82;-8.15;-13.28;8.15;-0.27;-0.82
6.33;4.49;-0.64;7.14;2.38;-4.67;-6.87;8.33;12.27;-17.85;-14.01;-6.87;10.35;-8.7;-4.49
6.34;4.49;-1.74;7.14;2.38;7.05;-6.87;8.33;12.27;-9.34;-15.29;-8.15;9.25;-5.22;-8.15
6.34;4.49;2.29;7.14;2.38;-0.09;-6.87;8.33;12.27;-12.73;-12.45;-2.38;7.05;-7.97;-5.22
6.35;4.49;-1.74;7.14;2.38;11.08;-6.87;8.33;12.27;-5.31;-11.54;-0.09;7.6;-1.74;-3.39
6.35;4.49;-1.65;7.14;2.38;-6.32;-6.87;8.33;12.27;-5.49;-20.6;-1.65;-2.29;-9.06;-5.58
6.36;4.49;2.93;7.14;2.38;-0.46;-6.87;8.33;12.27;-7.6;-11.17;5.77;-9.8;-4.67;-11.08
6.36;4.49;1.56;7.14;2.38;-1.1;-6.87;8.33;12.27;-13.64;-15.11;6.77;-21.51;2.84;-5.22
6.37;3.85;5.77;1.92;5.58;-6.13;4.12;-6.68;-0.46;-7.23;-14.56;11.63;-5.68;-0.09;-11.08
6.37;6.68;7.05;-5.95;2.01;-8.33;-3.75;-6.87;3.75;-11.26;-14.01;0.73;0.64;-3.75;-3.3
6.38;8.33;1.01;-2.47;1.19;-3.57;5.04;-5.22;-1.1;-12.54;-1.74;1.56;8.33;-6.68;-11.08
6.38;10.71;9.98;-1.83;-4.3;-3.2;-3.02;0.82;-0.27;-13.82;-5.4;-5.95;14.01;-5.04;-8.7
6.39;8.51;5.77;-1.83;-4.58;-0.27;-4.12;1.1;3.02;-9.98;-3.85;1.56;18.04;-4.85;-13.82
6.39;10.89;7.87;-5.77;5.77;-10.53;-2.11;-10.16;-8.97;-3.2;-2.38;-0.09;9.25;-12.91;-8.7
6.4;3.39;5.95;-2.66;3.2;4.49;1.83;-6.32;5.04;-3.39;-1.56;6.32;7.05;-8.42;-4.67
6.4;9.34;1.65;-2.93;8.15;-0.18;-1.74;-9.06;15.29;-2.11;-3.39;5.77;6.87;-8.42;-11.54
6.41;12.73;11.26;-1.37;7.14;4.21;0.55;-7.23;3.2;-0.27;1.19;1.19;1.83;-14.92;-7.78
6.41;6.13;8.51;-6.13;6.87;9.43;-2.75;-8.51;4.21;0.27;-1.28;-5.49;-10.62;-9.89;-6.96
6.42;5.49;6.77;-0.09;4.3;7.05;4.49;-8.24;-3.75;-3.2;-6.68;6.68;-7.78;-9.34;-6.32
6.42;5.4;3.2;4.67;5.95;8.51;-0.09;-7.6;-0.27;-7.32;-3.39;-9.89;1.74;-9.06;-1.92
6.43;2.66;5.58;-0.82;10.8;-1.01;-6.68;-6.96;-2.66;-4.3;-5.22;-1.46;1.1;-8.51;-7.97
6.43;13.09;-1.92;-4.58;10.8;-2.47;-0.82;-1.1;-6.13;-6.23;4.12;-0.82;13.82;-0.92;-4.67
6.44;8.33;9.98;-5.68;10.8;-2.11;0.46;-2.29;1.92;-6.04;-4.94;-0.64;15.84;-11.08;-1.01
6.44;-0.09;3.48;0.27;10.8;-3.11;-2.75;3.85;2.47;-1.83;-0.82;5.58;17.3;-4.85;0.09
6.45;0.64;5.68;-4.85;10.8;-0.27;-4.58;2.84;-0.64;-4.85;-0.18;-0.82;17.4;-0.27;-2.38
6.45;-6.41;3.39;2.38;10.8;-6.32;3.02;-3.2;-2.75;-0.09;1.74;0.27;12.63;-3.85;-3.3
6.46;-10.71;-1.28;1.46;10.8;6.04;-1.56;1.37;-0.82;-1.37;0.92;-1.1;-0.09;-7.87;-4.49
6.46;-3.75;-3.75;-5.77;10.8;-3.85;-8.51;2.29;6.32;-5.58;5.04;7.69;-8.7;-5.04;-4.12
6.47;-3.57;-11.08;-2.47;10.8;-6.04;-5.04;0.46;3.39;1.74;13.28;10.71;-18.86;-8.24;2.66
6.47;-2.01;-9.98;-5.13;10.8;1.19;1.1;-6.13;3.11;-5.4;20.05;13.92;-33.78;3.75;-4.76
6.48;0.82;-7.97;-3.57;10.8;3.94;-2.29;2.75;5.95;-14.56;10.07;11.9;-34.7;-7.78;-4.12
6.48;-0.55;-9.7;1.56;10.8;-7.23;0.73;-0.09;11.26;-9.61;0.82;6.96;-37.08;-10.16;-4.49
6.49;1.28;-11.08;8.42;10.8;-5.95;0.27;-5.68;5.22;-14.56;4.58;5.04;-35.61;-9.34;-2.75
6.49;4.49;-8.61;8.61;10.8;-2.11;-0.27;-9.8;9.61;-1.74;1.46;-1.01;-34.88;-7.42;-3.39
6.5;6.13;-10.53;8.61;10.8;5.68;-0.27;-12.18;1.74;-6.13;-0.09;-2.11;-24.08;1.92;-6.68
6.5;10.35;-16.75;8.61;10.8;1.01;-0.27;-12.36;9.25;-16.3;-0.18;-10.71;-18.77;-5.22;-1.19
6.51;8.7;-7.78;8.61;10.8;1.19;-0.27;-2.38;7.97;-10.71;3.39;-11.08;-1.19;-1.19;-0.37
6.51;-2.84;-3.75;8.61;10.8;3.39;-0.27;6.68;4.3;-11.44;-3.39;-12.73;-7.51;-4.67;0.18
6.52;3.75;-4.76;8.61;10.8;-8.15;-0.27;5.04;0.64;-7.97;3.48;-10.53;1.74;-3.57;-1.37
6.52;-4.12;-3.57;8.61;10.8;1.37;-0.27;10.71;7.87;-6.13;2.38;-12.91;-4.3;-12.63;-2.66
6.53;-2.47;-5.77;8.61;10.8;-6.41;-0.27;15.38;0.82;-2.01;-6.23;-15.84;1.92;-9.8;-9.06
6.53;3.3;-1.37;8.61;10.8;-0.09;-0.27;7.78;5.4;-5.04;-3.75;-14.28;-1.74;-11.26;-0.09
6.54;-1.74;-4.67;8.61;10.8;6.23;-0.27;-1.56;13.28;-3.94;13.09;-12.73;-5.49;-15.11;-5.31
6.54;-8.06;-2.38;8.61;10.8;-7.69;-0.27;0.27;7.69;-3.75;1.92;-11.08;-8.51;-10.8;-2.75
6.55;-6.5;-6.96;8.61;10.8;-8.7;-0.27;2.47;1.65;-3.2;1.37;-1.74;-14.83;-10.16;2.56
6.55;-0.09;-0.09;8.61;10.8;-3.2;-0.27;7.23;6.41;-3.94;0.09;-5.22;1.28;-7.14;-11.99
6.56;-7.78;-6.77;8.61;10.8;-4.49;-0.27;5.22;3.57;1.74;-1.01;-6.32;5.31;-3.02;-9.06
6.56;-7.78;-6.77;7.05;10.8;-4.49;-0.27;5.31;2.66;6.68;-6.68;1.92;12.63;0.27;-8.42
6.57;-7.78;-6.77;2.11;10.8;-4.49;-0.27;-7.6;-8.51;-3.11;-9.98;-1.74;7.42;-2.38;-5.4
6.57;-7.78;-6.77;-5.95;10.8;-4.49;-0.27;-7.23;-6.32;3.94;-9.61;-6.32;11.63;-4.49;5.4
6.58;-7.78;-6.77;3.94;10.8;-4.49;-0.27;2.47;2.93;-4.85;0.46;-8.97;0.64;-10.16;-5.22
6.58;-7.78;-6.77;-3.94;10.8;-4.49;-0.27;6.23;11.26;7.51;-3.2;-4.58;2.2;-5.4;-4.58
6.59;-7.78;-6.77;2.84;10.8;-4.49;-0.27;3.75;9.43;-0.37;-0.09;-6.32;2.29;-10.35;-2.47
6.59;-7.78;-6.77;-4.58;10.8;-4.49;-0.27;4.58;12.91;5.58;-5.04;-3.48;2.11;-5.77;2.29
6.6;-7.78;-6.77;-6.5;10.8;-4.49;-0.27;-0.64;9.98;0.82;-6.68;-10.44;12.91;-8.33;-8.7
6.6;-7.78;-6.77;0.46;10.8;-4.49;-0.27;0.92;10.16;4.94;-4.85;-9.43;12.45;-8.15;-2.47
6.61;-7.78;-6.77;-0.09;10.8;-4.49;-0.27;3.94;15.11;0.82;-4.3;-8.33;5.22;-6.5;-3.39
6.61;-7.78;-6.77;0.82;10.8;-4.49;-0.27;4.3;11.35;1.92;-6.13;-5.4;-10.71;-8.24;-4.12
6.62;-7.78;-6.77;-2.75;10.8;-4.49;-0.27;-2.84;15.47;-0.73;-1.83;-1.92;-11.44;-7.6;-1.37
6.62;-7.78;-6.77;1.01;10.8;-4.49;-0.27;2.47;8.88;-2.29;-0.55;4.12;-11.08;-8.33;-3.02
6.63;1.56;8.51;2.66;6.77;3.75;1.74;-3.02;12.08;-0.09;1.65;-3.75;-15.47;-7.97;1.37
6.63;0.46;1.01;4.85;0.18;-0.09;1.37;-0.18;5.77;-0.37;-2.75;-2.75;-27.28;-8.51;2.75
6.64;5.4;5.04;-3.39;5.04;-6.59;0.18;-2.01;5.31;-3.94;-0.55;-1.19;-29.02;-5.95;4.85
6.64;1.19;8.33;-4.49;3.94;-3.39;-1.46;-3.02;1.1;-0.82;-0.18;-9.8;-24.17;-5.68;5.68
6.65;4.85;12.73;1.56;-2.66;2.2;-8.33;13.09;-4.85;2.11;-1.01;-1.56;-24.44;-4.85;3.39
6.65;-0.64;15.11;-3.3;5.49;-10.71;-0.64;1.92;-2.29;1.37;-0.09;-9.98;-16.2;-5.58;0.92
6.66;-6.96;15.56;-9.06;1.83;-3.2;0.37;0.37;-0.46;-0.82;-8.51;-12.82;-15.66;-5.4;-3.85
6.66;3.39;7.87;-2.84;4.12;4.12;-0.82;-6.5;-2.66;-3.75;-9.61;-3.75;-14.19;-14.19;0.27
6.67;2.11;14.74;-4.67;3.85;2.66;-5.58;-14.74;-3.2;-2.38;-3.48;-9.43;-3.85;-8.24;-1.19
6.67;6.96;9.16;-5.22;3.57;3.94;-3.02;-1.1;-7.51;-7.05;-3.75;-12.54;-5.31;-7.6;-7.42
6.68;6.41;8.33;-1.74;5.04;8.06;2.01;-3.02;-7.14;-7.14;-7.6;-10.71;-6.87;-9.25;-8.15
6.68;-1.56;13.46;-2.66;-5.04;-5.49;-2.66;-7.97;3.2;-5.4;-9.89;-11.81;-6.41;-3.75;-6.13
6.69;11.54;11.9;-3.94;3.57;-4.94;-0.27;-6.87;-0.64;-4.21;-7.78;-18.4;-10.71;-7.97;-1.74
6.69;9.16;11.9;3.02;4.3;-4.94;6.5;-4.03;1.19;-6.68;-7.97;-13.09;-9.43;-5.68;-5.22
6.7;1.74;11.9;2.84;2.38;-3.94;-1.37;-8.06;-0.09;-6.77;-8.24;-7.97;-11.26;-4.85;5.13
6.7;6.77;11.9;1.01;2.66;1.46;-0.09;-8.06;0.46;-6.13;-7.78;-0.92;-5.31;-5.95;-1.56
6.71;12.91;11.9;0.27;-2.75;-6.32;-3.48;-5.22;-5.22;-1.37;-5.22;0.46;-6.5;-9.98;-6.32
6.71;-2.29;11.9;0.73;1.74;1.92;-4.12;-1.19;4.49;-1.65;-10.16;-3.75;-10.35;-6.87;-4.94
6.72;-6.5;11.9;-2.29;1.28;0.09;-2.66;-2.29;-8.15;0.37;-0.46;-7.05;-9.7;-8.33;2.11
6.72;3.57;11.9;-3.75;-6.13;-1.19;0.92;1.28;-1.74;-9.98;-5.22;-4.49;-11.17;-2.29;-2.29
6.73;10.07;11.9;4.76;-9.98;4.76;-7.23;-7.23;-0.82;-10.89;0.64;-8.7;-5.77;-14.92;-7.97
6.73;15.38;11.9;6.87;-3.02;2.29;-5.4;-4.3;-6.13;-1.19;-2.01;1.28;-7.87;-12.91;-3.2
6.74;7.05;11.9;0.55;-3.2;1.56;-3.75;-0.18;-6.5;-9.61;-1.28;4.12;-2.29;-3.75;2.11
6.74;5.04;11.9;-0.82;-3.94;8.33;7.42;-0.09;-0.09;-11.08;-4.67;-1.19;-5.95;-6.5;-3.2
6.75;15.11;11.9;3.39;2.29;1.1;1.74;-9.06;-4.76;-11.44;-3.75;-3.11;-8.33;-5.4;-1.74
6.75;9.98;11.9;2.47;-0.92;5.4;4.3;-16.2;-4.12;-2.29;-2.66;5.77;-3.94;-5.04;-9.61
6.76;9.98;11.9;-1.83;-0.92;-4.12;4.3;3.48;-8.7;-12.18;-5.95;-0.09;-0.09;-1.28;-13.28
6.76;9.98;11.9;0.82;-0.92;-0.27;4.3;-4.3;-0.82;-12.54;-3.02;-2.38;1.37;-12.73;-1.92
6.77;9.98;11.9;-5.13;-0.92;-0.55;4.3;-7.23;6.5;-11.63;-0.09;-5.04;3.48;-1.1;-18.4
6.77;9.98;11.9;-2.38;-0.92;0.64;4.3;-6.68;-1.83;-11.81;-0.18;-2.11;8.06;-2.01;-7.42
6.78;9.98;11.9;-3.57;-0.92;-2.38;4.3;-6.59;-2.75;-3.2;-2.47;-2.29;8.61;-9.43;-1.92
6.78;9.98;11.9;-9.06;-0.92;-1.19;4.3;-0.55;-2.75;-12.36;1.74;-4.3;4.3;0.82;-8.97
6.79;9.98;11.9;0.82;-0.92;2.11;4.3;2.84;4.85;-10.99;-6.32;-1.65;-4.3;-3.94;-7.97
6.79;9.98;11.9;-0.09;-0.92;-3.75;4.3;-6.41;5.31;-18.86;-5.22;-5.95;9.34;-4.39;-6.32
6.8;9.98;11.9;-2.84;-0.92;-2.56;4.3;-0.64;1.28;-17.49;-2.84;-10.07;2.47;-2.29;-2.2
6.8;9.98;11.9;2.75;-0.92;1.92;4.3;-2.11;6.13;-15.38;-3.3;-10.71;3.11;-3.94;-5.04
6.81;9.98;11.9;3.48;-0.92;9.61;4.3;-6.32;-1.92;-14.01;-4.39;-13.28;7.97;-1.56;-2.29
6.81;9.98;11.9;4.12;-0.92;-5.95;4.3;-7.23;-4.85;-24.26;-7.6;-6.32;11.44;-5.68;-2.2
6.82;9.98;11.9;2.11;-0.92;-3.11;4.3;-0.09;-2.47;-17.3;-6.5;-6.23;4.67;-5.58;-5.04
6.82;-3.94;12.73;2.11;-0.92;1.56;-1.92;5.4;-3.85;-10.8;-7.42;20.97;10.07;0.73;-1.92
6.83;-4.49;-0.18;2.11;-0.92;-1.74;0.64;1.56;-1.1;-15.29;-4.49;-3.57;9.06;-5.58;6.13
6.83;3.75;-0.64;2.11;-0.92;-0.27;-3.85;9.89;-6.96;-9.61;-6.96;-0.82;12.36;-1.01;4.49
6.84;-0.46;4.85;2.11;-0.92;-7.23;-9.98;1.28;-0.09;-3.75;-6.68;-9.98;8.24;-8.7;-2.56
6.84;-4.67;-0.09;2.11;-0.92;-0.09;-6.13;3.2;-4.49;6.68;-10.44;-11.63;3.2;-9.98;-4.21
6.85;-14.1;3.02;2.11;-0.92;-4.67;-7.42;4.85;3.02;4.85;-7.51;-4.12;4.39;-0.46;1.74
6.85;-11.08;-1.19;2.11;-0.92;-9.43;-0.55;2.29;5.04;-4.67;-4.85;-10.16;7.05;-5.4;-0.09
6.86;-8.88;-9.34;2.11;-0.92;-5.58;-5.77;6.23;6.5;1.56;-3.2;-0.37;3.75;-2.47;-4.94
6.86;-8.15;-2.47;2.11;-0.92;-1.56;-2.84;3.39;4.58;3.85;2.11;-13.64;6.68;-5.58;-0.46
6.87;-2.66;-5.22;2.11;-0.92;-1.37;-7.42;4.3;3.75;-4.21;3.11;-4.3;10.89;-8.33;-1.74
6.87;-4.67;0.64;2.11;-0.92;-1.65;2.11;-3.3;-0.73;-1.83;-2.11;-15.75;-6.5;-15.29;-2.11
6.88;-2.66;2.2;2.11;-0.92;-2.47;-2.47;-2.38;-3.75;-12.54;1.56;-4.85;-12.36;-7.51;-0.64
6.88;3.57;1.56;2.11;-0.92;3.75;-3.2;-3.94;-2.29;-1.01;-10.53;-4.03;-11.99;-6.87;-1.92
6.89;1.56;11.17;-2.93;8.51;-5.04;3.02;-4.67;-3.02;-5.86;-2.84;-2.11;-10.16;-1.56;-5.04
6.89;-0.09;15.66;0.82;6.13;-1.01;-3.75;-2.84;-1.01;-16.02;-13.37;-1.19;-5.31;-0.09;2.66
6.9;-12.91;10.53;-8.15;-0.27;-3.57;0.18;4.94;-4.85;-10.53;-9.25;-7.23;-6.68;-3.2;-3.75
6.9;-5.77;8.97;0.37;0.92;-6.87;-6.87;1.56;-2.01;-8.15;-10.53;-0.55;-5.22;-1.92;3.75
6.91;-3.94;5.04;3.75;2.84;-6.68;-3.75;3.11;-4.94;-8.33;-6.04;2.01;-9.89;-5.22;2.84
6.91;-3.3;4.12;2.56;7.78;-14.01;-9.34;-10.25;1.01;-1.19;-0.27;8.33;-13.09;-6.68;-4.85
6.92;3.57;4.67;-0.09;5.68;-6.87;-8.51;2.29;-4.58;-8.15;-2.47;5.58;-11.26;-0.46;-4.49
6.92;3.57;-2.38;-5.4;-1.92;-11.08;-12.73;-0.09;-1.01;-6.32;-1.28;10.89;-28.84;-6.23;-10.89
6.93;-1.74;-4.3;-1.37;2.66;-2.66;-12.54;-3.94;-0.27;-4.21;2.75;22.71;-22.98;-3.2;-10.44
6.93;-1.46;0.64;-0.18;5.4;1.65;-7.97;-3.3;-4.39;-12.82;1.56;17.12;-17.76;-10.44;-0.09
6.94;-4.12;-6.23;0.64;1.19;-0.27;-6.68;-9.34;-8.51;-1.19;-1.1;21.7;-21.88;-8.51;-9.06
6.94;6.13;1.01;3.48;0.64;-7.97;-7.78;-7.42;-3.75;-7.14;2.84;13.64;-18.4;-3.94;-7.6
6.95;1.92;5.22;0.27;5.4;-6.32;-7.05;-4.3;3.57;-10.89;-1.92;9.98;-7.6;-1.74;-7.6
6.95;1.92;5.04;-1.37;5.31;0.55;-4.85;-4.67;0.55;-12.36;9.25;12.36;-7.05;2.66;-7.42
6.96;1.92;5.58;-3.75;-5.58;-7.78;-4.85;-6.87;3.39;-11.44;-1.37;1.19;3.11;1.01;-1.37
6.96;1.92;4.76;5.58;1.01;-3.57;-17.12;-8.51;2.47;-13.37;-1.19;-4.85;9.61;3.02;-3.57
6.97;1.92;0.46;-2.38;3.85;-15.01;-5.4;7.6;3.57;-18.04;0.64;-2.29;10.71;-4.76;-7.6
6.97;1.92;-3.11;-4.03;0.09;-5.22;-11.54;6.5;-2.11;-13.46;3.39;-6.04;14.01;5.68;-6.5
6.98;1.92;-2.01;3.57;2.47;-3.39;-10.89;7.87;2.47;-14.74;-8.42;-8.15;9.61;-1.37;-5.95
6.98;1.92;-10.89;-0.92;10.16;-9.98;-4.85;2.47;-1.19;-11.81;-2.11;-13.55;5.58;-3.02;-0.82
6.99;1.92;-14.37;-6.5;6.68;-5.04;-8.61;2.11;4.85;-27.01;3.94;-16.66;10.89;-5.4;-9.61
6.99;1.92;-7.42;-5.95;5.77;-4.03;-5.49;-0.46;11.99;-29.75;-2.56;-10.71;6.87;-2.29;-11.63
7;1.92;-1.28;-1.74;4.85;-4.21;-8.7;1.74;8.61;-24.26;-5.22;-21.33;-1.37;-7.78;-6.13
